T = SerialEM: UMass_Krios Camera -> 0:Ceta 1:GIF-K3         08-Oct-21  07:47:29    
Voltage = 300

[FrameSet = 0]
GainReference = SuperRef_s_mmm_00000_-15.0_Oct08_01.59.24.dm4
TiltAngle = 32.986
StagePosition = -142.831 -457.473
StageZ = -13.7203
Magnification = 33000
Intensity = 0.11378
ExposureDose = 291.302
DoseRate = 2.15073
PixelSpacing = 1.2827
SpotSize = 9
Defocus = -7.933
ImageShift = 0 0
RotationAngle = 178.414
ExposureTime = 40.9854
Binning = 0.5
CameraIndex = 1
DividedBy2 = 0
OperatingMode = 1
UsingCDS = 0
MagIndex = 26
LowDoseConSet = 4
CountsPerElectron = 1
TargetDefocus = -4.5
SubFramePath = X:\Johannes_20211007\grid2_lamella3\frames\s_mmm_01013_33.0_Oct08_07.46.46.tif
NumSubFrames = 243
FrameDosesAndNumber = 0.63882 243
DateTime = 08-Oct-21  07:47:29
FilterSlitAndLoss = 20 0
UncroppedSize = -2880 -2046

[ZValue = 0]
TiltAngle = 33
FrameTSStartEndFrames = 0 12
PriorRecordDose = 0
ExposureDose = 7.66184

[ZValue = 1]
TiltAngle = 33
FrameTSStartEndFrames = 22 34
PriorRecordDose = 7.66184
ExposureDose = 7.66184

[ZValue = 2]
TiltAngle = 33
FrameTSStartEndFrames = 44 56
PriorRecordDose = 15.3237
ExposureDose = 7.66184

[ZValue = 3]
TiltAngle = 33
FrameTSStartEndFrames = 66 78
PriorRecordDose = 22.9855
ExposureDose = 7.66184

[ZValue = 4]
TiltAngle = 33
FrameTSStartEndFrames = 88 100
PriorRecordDose = 30.6473
ExposureDose = 7.66184

[ZValue = 5]
TiltAngle = 33
FrameTSStartEndFrames = 110 122
PriorRecordDose = 38.3092
ExposureDose = 7.66184

[ZValue = 6]
TiltAngle = 33
FrameTSStartEndFrames = 132 144
PriorRecordDose = 45.971
ExposureDose = 7.55522

[ZValue = 7]
TiltAngle = 33
FrameTSStartEndFrames = 154 166
PriorRecordDose = 53.5262
ExposureDose = 7.66184

[ZValue = 8]
TiltAngle = 33
FrameTSStartEndFrames = 176 188
PriorRecordDose = 61.1881
ExposureDose = 7.54812

[ZValue = 9]
TiltAngle = 33
FrameTSStartEndFrames = 199 211
PriorRecordDose = 68.7362
ExposureDose = 7.66184

[ZValue = 10]
TiltAngle = 33
FrameTSStartEndFrames = 221 233
PriorRecordDose = 76.398
ExposureDose = 7.66184

[ZValue = 11]
TiltAngle = 33
FrameTSStartEndFrames = 243 255
PriorRecordDose = 84.0599
ExposureDose = 7.66894

[ZValue = 12]
TiltAngle = 33
FrameTSStartEndFrames = 265 277
PriorRecordDose = 91.7288
ExposureDose = 7.66184

[ZValue = 13]
TiltAngle = 33
FrameTSStartEndFrames = 287 299
PriorRecordDose = 99.3906
ExposureDose = 8.10961

[ZValue = 14]
TiltAngle = 33
FrameTSStartEndFrames = 309 321
PriorRecordDose = 107.5
ExposureDose = 7.66894

[ZValue = 15]
TiltAngle = 33
FrameTSStartEndFrames = 331 343
PriorRecordDose = 115.169
ExposureDose = 7.66184

[ZValue = 16]
TiltAngle = 33
FrameTSStartEndFrames = 353 365
PriorRecordDose = 122.831
ExposureDose = 7.66184

[ZValue = 17]
TiltAngle = 33
FrameTSStartEndFrames = 375 387
PriorRecordDose = 130.493
ExposureDose = 7.66184

[ZValue = 18]
TiltAngle = 33
FrameTSStartEndFrames = 397 409
PriorRecordDose = 138.155
ExposureDose = 7.66184

[ZValue = 19]
TiltAngle = 33
FrameTSStartEndFrames = 419 431
PriorRecordDose = 145.817
ExposureDose = 7.66184
