PixelSpacing = 656.139
Voltage = 300
ImageFile = LMM.mrc
ImageSize = 5064 3976
Montage = 1
DataMode = 1

[T = SerialEM: Titan Krios D3692 at Institut Pasteur         25-Mar-21  16:59:53]

[T = Tilt axis angle = -86.7, binning = 1  spot = 7  camera = 1]

[ZValue = 0]
PieceCoordinates = 0 0 0
MinMaxMean = -23 1110 2.48245
TiltAngle = -0.00654056
StagePosition = 919.141 849.945
StageZ = 54.986
Magnification = 135
Intensity = 2.98776
ExposureDose = 0
DoseRate = 0.121077
PixelSpacing = 656.139
SpotSize = 7
Defocus = -350.513
ImageShift = 0 0
RotationAngle = 3.34915
ExposureTime = 1.00134
Binning = 1
CameraIndex = 1
DividedBy2 = 1
OperatingMode = 1
UsingCDS = 1
MagIndex = 4
LowDoseConSet = -8
CountsPerElectron = 16
TargetDefocus = -5
DateTime = 25-Mar-21  17:00:46
FilterSlitAndLoss = 0 0
AlignedPieceCoordsVS = 38 -65 0
XedgeDxyVS = 245.996 14.1728 0.0296564
YedgeDxyVS = -71.9772 69.4541 0.0306245
XedgeDxy = -46.5 -16.5
YedgeDxy = -47.5 14.625

[ZValue = 1]
PieceCoordinates = 0 3400 0
MinMaxMean = -45 1281 50.6412
TiltAngle = -0.00654056
StagePosition = 907.435 623.92
StageZ = 54.986
Magnification = 135
Intensity = 2.98776
ExposureDose = 0
DoseRate = 3.15634
PixelSpacing = 656.139
SpotSize = 7
Defocus = -350.513
ImageShift = 0 0
RotationAngle = 3.34915
ExposureTime = 1.00134
Binning = 1
CameraIndex = 1
DividedBy2 = 1
OperatingMode = 1
UsingCDS = 1
MagIndex = 4
LowDoseConSet = -8
CountsPerElectron = 16
TargetDefocus = -5
DateTime = 25-Mar-21  17:00:56
FilterSlitAndLoss = 0 0
AlignedPieceCoordsVS = -43 3113 0
XedgeDxyVS = -32.5421 -87.906 0.384991
YedgeDxyVS = 1.90039 -45.7219 0.625363
XedgeDxy = 49.5 -6.5
YedgeDxy = 0.5 -41.5

[ZValue = 2]
PieceCoordinates = 0 6800 0
MinMaxMean = -41 1266 83.2111
TiltAngle = -0.00654056
StagePosition = 895.731 397.91
StageZ = 54.986
Magnification = 135
Intensity = 2.98776
ExposureDose = 0
DoseRate = 6.1972
PixelSpacing = 656.139
SpotSize = 7
Defocus = -350.513
ImageShift = 0 0
RotationAngle = 3.34915
ExposureTime = 1.00134
Binning = 1
CameraIndex = 1
DividedBy2 = 1
OperatingMode = 1
UsingCDS = 1
MagIndex = 4
LowDoseConSet = -8
CountsPerElectron = 16
TargetDefocus = -5
DateTime = 25-Mar-21  17:01:06
FilterSlitAndLoss = 0 0
AlignedPieceCoordsVS = -45 6604 0
XedgeDxyVS = -33.9748 -52.2227 0.545536
YedgeDxyVS = 0.667039 -48.084 0.41008
XedgeDxy = -33.625 -52.5
YedgeDxy = -0.5 -46.5

[ZValue = 3]
PieceCoordinates = 0 10200 0
MinMaxMean = -78 1546 109.61
TiltAngle = -0.00654056
StagePosition = 884.025 171.901
StageZ = 54.986
Magnification = 135
Intensity = 2.98776
ExposureDose = 0
DoseRate = 8.6135
PixelSpacing = 656.139
SpotSize = 7
Defocus = -350.513
ImageShift = 0 0
RotationAngle = 3.34915
ExposureTime = 1.00134
Binning = 1
CameraIndex = 1
DividedBy2 = 1
OperatingMode = 1
UsingCDS = 1
MagIndex = 4
LowDoseConSet = -8
CountsPerElectron = 16
TargetDefocus = -5
DateTime = 25-Mar-21  17:01:17
FilterSlitAndLoss = 0 0
AlignedPieceCoordsVS = -47 10101 0
XedgeDxyVS = -36.1532 -27.6653 0.391642
YedgeDxyVS = -0.688696 -44.8704 0.398533
XedgeDxy = -35.5 -26.5
YedgeDxy = 0.375 -44.5

[ZValue = 4]
PieceCoordinates = 0 13600 0
MinMaxMean = -60 1412 84.4791
TiltAngle = -0.00654056
StagePosition = 872.318 -54.1115
StageZ = 54.986
Magnification = 135
Intensity = 2.98776
ExposureDose = 0
DoseRate = 5.51402
PixelSpacing = 656.139
SpotSize = 7
Defocus = -350.513
ImageShift = 0 0
RotationAngle = 3.34915
ExposureTime = 1.00134
Binning = 1
CameraIndex = 1
DividedBy2 = 1
OperatingMode = 1
UsingCDS = 1
MagIndex = 4
LowDoseConSet = -8
CountsPerElectron = 16
TargetDefocus = -5
DateTime = 25-Mar-21  17:01:27
FilterSlitAndLoss = 0 0
AlignedPieceCoordsVS = -48 13599 0
XedgeDxyVS = -39.3152 2.03848 0.456001
YedgeDxyVS = -0.347879 -39.6469 0.503816
XedgeDxy = -39.625 0.5
YedgeDxy = 0.5 -40.375

[ZValue = 5]
PieceCoordinates = 0 17000 0
MinMaxMean = -45 1334 46.5813
TiltAngle = -0.00654056
StagePosition = 860.613 -280.126
StageZ = 54.986
Magnification = 135
Intensity = 2.98776
ExposureDose = 0
DoseRate = 3.3924
PixelSpacing = 656.139
SpotSize = 7
Defocus = -350.513
ImageShift = 0 0
RotationAngle = 3.34915
ExposureTime = 1.00134
Binning = 1
CameraIndex = 1
DividedBy2 = 1
OperatingMode = 1
UsingCDS = 1
MagIndex = 4
LowDoseConSet = -8
CountsPerElectron = 16
TargetDefocus = -5
DateTime = 25-Mar-21  17:01:38
FilterSlitAndLoss = 0 0
AlignedPieceCoordsVS = -50 17095 0
XedgeDxyVS = -37.9503 27.4763 0.679133
YedgeDxyVS = 5.86597 -56.7185 0.42553
XedgeDxy = -36.5 26.625
YedgeDxy = -47.5 -5.5

[ZValue = 6]
PieceCoordinates = 0 20400 0
MinMaxMean = -64 1312 45.0342
TiltAngle = -0.00654056
StagePosition = 848.908 -506.136
StageZ = 54.986
Magnification = 135
Intensity = 2.98776
ExposureDose = 0
DoseRate = 4.04638
PixelSpacing = 656.139
SpotSize = 7
Defocus = -350.513
ImageShift = 0 0
RotationAngle = 3.34915
ExposureTime = 1.00134
Binning = 1
CameraIndex = 1
DividedBy2 = 1
OperatingMode = 1
UsingCDS = 1
MagIndex = 4
LowDoseConSet = -8
CountsPerElectron = 16
TargetDefocus = -5
DateTime = 25-Mar-21  17:01:48
FilterSlitAndLoss = 0 0
AlignedPieceCoordsVS = -57 20600 0
XedgeDxyVS = -42.0949 52.1928 0.445202
YedgeDxyVS = 0.861992 -42.6965 0.56742
XedgeDxy = -42.5 52.5
YedgeDxy = 4.375 -49.5

[ZValue = 7]
PieceCoordinates = 0 23800 0
MinMaxMean = -40 1280 18.4378
TiltAngle = -0.00654056
StagePosition = 837.202 -732.138
StageZ = 54.986
Magnification = 135
Intensity = 2.98776
ExposureDose = 0
DoseRate = 1.69093
PixelSpacing = 656.139
SpotSize = 7
Defocus = -350.513
ImageShift = 0 0
RotationAngle = 3.34915
ExposureTime = 1.00134
Binning = 1
CameraIndex = 1
DividedBy2 = 1
OperatingMode = 1
UsingCDS = 1
MagIndex = 4
LowDoseConSet = -8
CountsPerElectron = 16
TargetDefocus = -5
DateTime = 25-Mar-21  17:01:58
FilterSlitAndLoss = 0 0
AlignedPieceCoordsVS = -58 24077 0
XedgeDxyVS = -38.9125 73.8286 0.471903
YedgeDxyVS = -71.9689 124.153 0.0274139
XedgeDxy = -38.5 75.5
YedgeDxy = -47.5 -1.375

[ZValue = 8]
PieceCoordinates = 0 27200 0
MinMaxMean = -48 2170 26.0089
TiltAngle = -0.00654056
StagePosition = 825.494 -958.148
StageZ = 54.986
Magnification = 135
Intensity = 2.98776
ExposureDose = 0
DoseRate = 1.87828
PixelSpacing = 656.139
SpotSize = 7
Defocus = -350.513
ImageShift = 0 0
RotationAngle = 3.34915
ExposureTime = 1.00134
Binning = 1
CameraIndex = 1
DividedBy2 = 1
OperatingMode = 1
UsingCDS = 1
MagIndex = 4
LowDoseConSet = -8
CountsPerElectron = 16
TargetDefocus = -5
DateTime = 25-Mar-21  17:02:09
FilterSlitAndLoss = 0 0
AlignedPieceCoordsVS = -68 27637 0
XedgeDxyVS = -40.586 108.86 0.218095
XedgeDxy = -42.5 108.625

[ZValue = 9]
PieceCoordinates = 4488 27200 0
MinMaxMean = -44 1347 44.5255
TiltAngle = -0.00654056
StagePosition = 534.724 -940.112
StageZ = 54.986
Magnification = 135
Intensity = 2.98776
ExposureDose = 0
DoseRate = 3.36137
PixelSpacing = 656.139
SpotSize = 7
Defocus = -350.513
ImageShift = 0 0
RotationAngle = 3.34915
ExposureTime = 1.00134
Binning = 1
CameraIndex = 1
DividedBy2 = 1
OperatingMode = 1
UsingCDS = 1
MagIndex = 4
LowDoseConSet = -8
CountsPerElectron = 16
TargetDefocus = -5
DateTime = 25-Mar-21  17:02:24
FilterSlitAndLoss = 0 0
AlignedPieceCoordsVS = 4461 27528 0
XedgeDxyVS = -27.9965 125.651 0.702922
XedgeDxy = -27.625 124.5

[ZValue = 10]
PieceCoordinates = 4488 23800 0
MinMaxMean = -57 1324 66.4689
TiltAngle = -0.00654056
StagePosition = 546.429 -714.089
StageZ = 54.986
Magnification = 135
Intensity = 2.98776
ExposureDose = 0
DoseRate = 4.5322
PixelSpacing = 656.139
SpotSize = 7
Defocus = -350.513
ImageShift = 0 0
RotationAngle = 3.34915
ExposureTime = 1.00134
Binning = 1
CameraIndex = 1
DividedBy2 = 1
OperatingMode = 1
UsingCDS = 1
MagIndex = 4
LowDoseConSet = -8
CountsPerElectron = 16
TargetDefocus = -5
DateTime = 25-Mar-21  17:02:35
FilterSlitAndLoss = 0 0
AlignedPieceCoordsVS = 4469 24038 0
XedgeDxyVS = -24.154 99.6215 0.677673
YedgeDxyVS = 7.99683 -58.0605 0.654313
XedgeDxy = -24.5 100.375
YedgeDxy = 5.5 -53.375

[ZValue = 11]
PieceCoordinates = 4488 20400 0
MinMaxMean = -83 1376 82.0137
TiltAngle = -0.00654056
StagePosition = 558.136 -488.08
StageZ = 54.986
Magnification = 135
Intensity = 2.98776
ExposureDose = 0
DoseRate = 5.68669
PixelSpacing = 656.139
SpotSize = 7
Defocus = -350.513
ImageShift = 0 0
RotationAngle = 3.34915
ExposureTime = 1.00134
Binning = 1
CameraIndex = 1
DividedBy2 = 1
OperatingMode = 1
UsingCDS = 1
MagIndex = 4
LowDoseConSet = -8
CountsPerElectron = 16
TargetDefocus = -5
DateTime = 25-Mar-21  17:02:46
FilterSlitAndLoss = 0 0
AlignedPieceCoordsVS = 4473 20561 0
XedgeDxyVS = -21.6845 66.2968 0.3841
YedgeDxyVS = 1.56885 -45.3921 0.682253
XedgeDxy = -22.5 69.5
YedgeDxy = 1.375 -45.5

[ZValue = 12]
PieceCoordinates = 4488 17000 0
MinMaxMean = -80 1376 106.482
TiltAngle = -0.00654056
StagePosition = 569.842 -262.07
StageZ = 54.986
Magnification = 135
Intensity = 2.98776
ExposureDose = 0
DoseRate = 8.21027
PixelSpacing = 656.139
SpotSize = 7
Defocus = -350.513
ImageShift = 0 0
RotationAngle = 3.34915
ExposureTime = 1.00134
Binning = 1
CameraIndex = 1
DividedBy2 = 1
OperatingMode = 1
UsingCDS = 1
MagIndex = 4
LowDoseConSet = -8
CountsPerElectron = 16
TargetDefocus = -5
DateTime = 25-Mar-21  17:02:56
FilterSlitAndLoss = 0 0
AlignedPieceCoordsVS = 4476 17075 0
XedgeDxyVS = -24.48 41.5555 0.581582
YedgeDxyVS = 3.40479 -55.2953 0.618761
XedgeDxy = -24.625 40.5
YedgeDxy = 2.5 -53.5

[ZValue = 13]
PieceCoordinates = 4488 13600 0
MinMaxMean = -74 1375 125.692
TiltAngle = -0.00654056
StagePosition = 581.547 -36.0576
StageZ = 54.986
Magnification = 135
Intensity = 2.98776
ExposureDose = 0
DoseRate = 9.45563
PixelSpacing = 656.139
SpotSize = 7
Defocus = -350.513
ImageShift = 0 0
RotationAngle = 3.34915
ExposureTime = 1.00134
Binning = 1
CameraIndex = 1
DividedBy2 = 1
OperatingMode = 1
UsingCDS = 1
MagIndex = 4
LowDoseConSet = -8
CountsPerElectron = 16
TargetDefocus = -5
DateTime = 25-Mar-21  17:03:07
FilterSlitAndLoss = 0 0
AlignedPieceCoordsVS = 4479 13595 0
XedgeDxyVS = -20.6652 16.5666 0.484187
YedgeDxyVS = 2.0874 -49.0988 0.453682
XedgeDxy = -20.5 16.5
YedgeDxy = 0.375 -44.5

[ZValue = 14]
PieceCoordinates = 4488 10200 0
MinMaxMean = -78 1357 184.978
TiltAngle = -0.00654056
StagePosition = 593.252 189.95
StageZ = 54.986
Magnification = 135
Intensity = 2.98776
ExposureDose = 0
DoseRate = 12.9789
PixelSpacing = 656.139
SpotSize = 7
Defocus = -350.513
ImageShift = 0 0
RotationAngle = 3.34915
ExposureTime = 1.00134
Binning = 1
CameraIndex = 1
DividedBy2 = 1
OperatingMode = 1
UsingCDS = 1
MagIndex = 4
LowDoseConSet = -8
CountsPerElectron = 16
TargetDefocus = -5
DateTime = 25-Mar-21  17:03:18
FilterSlitAndLoss = 0 0
AlignedPieceCoordsVS = 4477 10124 0
XedgeDxyVS = -20.9459 -11.8103 0.250436
YedgeDxyVS = -3.15473 -39.6747 0.410913
XedgeDxy = -20.5 -11.5
YedgeDxy = -3.5 -40.375

[ZValue = 15]
PieceCoordinates = 4488 6800 0
MinMaxMean = -74 1340 176.658
TiltAngle = -0.00654056
StagePosition = 604.958 415.962
StageZ = 54.986
Magnification = 135
Intensity = 2.98776
ExposureDose = 0
DoseRate = 14.57
PixelSpacing = 656.139
SpotSize = 7
Defocus = -350.513
ImageShift = 0 0
RotationAngle = 3.34915
ExposureTime = 1.00134
Binning = 1
CameraIndex = 1
DividedBy2 = 1
OperatingMode = 1
UsingCDS = 1
MagIndex = 4
LowDoseConSet = -8
CountsPerElectron = 16
TargetDefocus = -5
DateTime = 25-Mar-21  17:03:28
FilterSlitAndLoss = 0 0
AlignedPieceCoordsVS = 4477 6652 0
XedgeDxyVS = -18.7699 -45.0869 0.453609
YedgeDxyVS = 0.0752186 -47.2543 0.366265
XedgeDxy = -18.5 -45.375
YedgeDxy = -0.5 -45.5

[ZValue = 16]
PieceCoordinates = 4488 3400 0
MinMaxMean = -81 1344 106.256
TiltAngle = -0.00654056
StagePosition = 616.665 641.967
StageZ = 54.986
Magnification = 135
Intensity = 2.98776
ExposureDose = 0
DoseRate = 9.0144
PixelSpacing = 656.139
SpotSize = 7
Defocus = -350.513
ImageShift = 0 0
RotationAngle = 3.34915
ExposureTime = 1.00134
Binning = 1
CameraIndex = 1
DividedBy2 = 1
OperatingMode = 1
UsingCDS = 1
MagIndex = 4
LowDoseConSet = -8
CountsPerElectron = 16
TargetDefocus = -5
DateTime = 25-Mar-21  17:03:39
FilterSlitAndLoss = 0 0
AlignedPieceCoordsVS = 4479 3154 0
XedgeDxyVS = -18.0891 -70.3711 0.503078
YedgeDxyVS = -1.6154 -40.5463 0.145844
XedgeDxy = -19.5 -73.5
YedgeDxy = -1.5 -40.5

[ZValue = 17]
PieceCoordinates = 4488 0 0
MinMaxMean = -63 1269 44.2057
TiltAngle = -0.00654056
StagePosition = 628.371 867.981
StageZ = 54.986
Magnification = 135
Intensity = 2.98776
ExposureDose = 0
DoseRate = 2.80651
PixelSpacing = 656.139
SpotSize = 7
Defocus = -350.513
ImageShift = 0 0
RotationAngle = 3.34915
ExposureTime = 1.00134
Binning = 1
CameraIndex = 1
DividedBy2 = 1
OperatingMode = 1
UsingCDS = 1
MagIndex = 4
LowDoseConSet = -8
CountsPerElectron = 16
TargetDefocus = -5
DateTime = 25-Mar-21  17:03:49
FilterSlitAndLoss = 0 0
AlignedPieceCoordsVS = 4481 -316 0
XedgeDxyVS = -9.37094 -104.161 0.472863
YedgeDxyVS = 1.69141 -41.9309 0.560274
XedgeDxy = -46.5 29.5
YedgeDxy = -47.5 42.5

[ZValue = 18]
PieceCoordinates = 8976 0 0
MinMaxMean = -65 1241 55.3596
TiltAngle = -0.00654056
StagePosition = 337.595 886.014
StageZ = 54.986
Magnification = 135
Intensity = 2.98776
ExposureDose = 0
DoseRate = 4.69215
PixelSpacing = 656.139
SpotSize = 7
Defocus = -350.513
ImageShift = 0 0
RotationAngle = 3.34915
ExposureTime = 1.00134
Binning = 1
CameraIndex = 1
DividedBy2 = 1
OperatingMode = 1
UsingCDS = 1
MagIndex = 4
LowDoseConSet = -8
CountsPerElectron = 16
TargetDefocus = -5
DateTime = 25-Mar-21  17:04:04
FilterSlitAndLoss = 0 0
AlignedPieceCoordsVS = 8979 -242 0
XedgeDxyVS = -23.9632 -121.012 0.631886
YedgeDxyVS = -5.96743 -36.7225 0.243601
XedgeDxy = -25.625 -118.5
YedgeDxy = -4.5 -37.5

[ZValue = 19]
PieceCoordinates = 8976 3400 0
MinMaxMean = -64 1365 126.967
TiltAngle = -0.00654056
StagePosition = 325.891 659.992
StageZ = 54.986
Magnification = 135
Intensity = 2.98776
ExposureDose = 0
DoseRate = 9.55551
PixelSpacing = 656.139
SpotSize = 7
Defocus = -350.513
ImageShift = 0 0
RotationAngle = 3.34915
ExposureTime = 1.00134
Binning = 1
CameraIndex = 1
DividedBy2 = 1
OperatingMode = 1
UsingCDS = 1
MagIndex = 4
LowDoseConSet = -8
CountsPerElectron = 16
TargetDefocus = -5
DateTime = 25-Mar-21  17:04:15
FilterSlitAndLoss = 0 0
AlignedPieceCoordsVS = 8985 3208 0
XedgeDxyVS = -22.4123 -86.5742 0.464286
YedgeDxyVS = -3.14757 -39.7582 0.534234
XedgeDxy = -23.5 -87.5
YedgeDxy = -2.625 -39.5

[ZValue = 20]
PieceCoordinates = 8976 6800 0
MinMaxMean = -63 1465 127.868
TiltAngle = -0.00654056
StagePosition = 314.184 433.982
StageZ = 54.986
Magnification = 135
Intensity = 2.98776
ExposureDose = 0
DoseRate = 8.83844
PixelSpacing = 656.139
SpotSize = 7
Defocus = -350.513
ImageShift = 0 0
RotationAngle = 3.34915
ExposureTime = 1.00134
Binning = 1
CameraIndex = 1
DividedBy2 = 1
OperatingMode = 1
UsingCDS = 1
MagIndex = 4
LowDoseConSet = -8
CountsPerElectron = 16
TargetDefocus = -5
DateTime = 25-Mar-21  17:04:26
FilterSlitAndLoss = 0 0
AlignedPieceCoordsVS = 8985 6669 0
XedgeDxyVS = -25.0063 -56.3438 0.50074
YedgeDxyVS = -1.89005 -43.2595 0.54688
XedgeDxy = -24.5 -57.5
YedgeDxy = -2.5 -42.5

[ZValue = 21]
PieceCoordinates = 8976 10200 0
MinMaxMean = -61 1434 116.198
TiltAngle = -0.00654056
StagePosition = 302.479 207.967
StageZ = 54.986
Magnification = 135
Intensity = 2.98776
ExposureDose = 0
DoseRate = 8.93303
PixelSpacing = 656.139
SpotSize = 7
Defocus = -350.513
ImageShift = 0 0
RotationAngle = 3.34915
ExposureTime = 1.00134
Binning = 1
CameraIndex = 1
DividedBy2 = 1
OperatingMode = 1
UsingCDS = 1
MagIndex = 4
LowDoseConSet = -8
CountsPerElectron = 16
TargetDefocus = -5
DateTime = 25-Mar-21  17:04:36
FilterSlitAndLoss = 0 0
AlignedPieceCoordsVS = 8986 10125 0
XedgeDxyVS = -26.5861 -33.365 0.503728
YedgeDxyVS = -2.59343 -37.0717 0.386433
XedgeDxy = -26.5 -33.5
YedgeDxy = -0.5 -45.5

[ZValue = 22]
PieceCoordinates = 8976 13600 0
MinMaxMean = -71 1328 138.101
TiltAngle = -0.00654056
StagePosition = 290.774 -18.0445
StageZ = 54.986
Magnification = 135
Intensity = 2.98776
ExposureDose = 0
DoseRate = 10.1833
PixelSpacing = 656.139
SpotSize = 7
Defocus = -350.513
ImageShift = 0 0
RotationAngle = 3.34915
ExposureTime = 1.00134
Binning = 1
CameraIndex = 1
DividedBy2 = 1
OperatingMode = 1
UsingCDS = 1
MagIndex = 4
LowDoseConSet = -8
CountsPerElectron = 16
TargetDefocus = -5
DateTime = 25-Mar-21  17:04:47
FilterSlitAndLoss = 0 0
AlignedPieceCoordsVS = 8988 13579 0
XedgeDxyVS = -24.3511 -10.0835 0.540549
YedgeDxyVS = 2.07178 -46.7574 0.590975
XedgeDxy = -26.625 -8.5
YedgeDxy = 1.375 -44.5

[ZValue = 23]
PieceCoordinates = 8976 17000 0
MinMaxMean = -50 1366 56.3185
TiltAngle = -0.00654056
StagePosition = 279.066 -244.055
StageZ = 54.986
Magnification = 135
Intensity = 2.98776
ExposureDose = 0
DoseRate = 4.07911
PixelSpacing = 656.139
SpotSize = 7
Defocus = -350.513
ImageShift = 0 0
RotationAngle = 3.34915
ExposureTime = 1.00134
Binning = 1
CameraIndex = 1
DividedBy2 = 1
OperatingMode = 1
UsingCDS = 1
MagIndex = 4
LowDoseConSet = -8
CountsPerElectron = 16
TargetDefocus = -5
DateTime = 25-Mar-21  17:04:57
FilterSlitAndLoss = 0 0
AlignedPieceCoordsVS = 8986 17042 0
XedgeDxyVS = -22.2478 12.2994 0.534093
YedgeDxyVS = 0.204228 -46.0763 0.59048
XedgeDxy = -27.5 17.625
YedgeDxy = 0.5 -47.375

[ZValue = 24]
PieceCoordinates = 8976 20400 0
MinMaxMean = -61 1308 64.5338
TiltAngle = -0.00654056
StagePosition = 267.361 -470.065
StageZ = 54.986
Magnification = 135
Intensity = 2.98776
ExposureDose = 0
DoseRate = 5.16622
PixelSpacing = 656.139
SpotSize = 7
Defocus = -350.513
ImageShift = 0 0
RotationAngle = 3.34915
ExposureTime = 1.00134
Binning = 1
CameraIndex = 1
DividedBy2 = 1
OperatingMode = 1
UsingCDS = 1
MagIndex = 4
LowDoseConSet = -8
CountsPerElectron = 16
TargetDefocus = -5
DateTime = 25-Mar-21  17:05:08
FilterSlitAndLoss = 0 0
AlignedPieceCoordsVS = 8983 20508 0
XedgeDxyVS = -24.5679 39.7372 0.715367
YedgeDxyVS = 1.83301 -48.9967 0.548311
XedgeDxy = 25.5 45.5
YedgeDxy = 2.5 -50.375

[ZValue = 25]
PieceCoordinates = 8976 23800 0
MinMaxMean = -53 1336 70.8016
TiltAngle = -0.00654056
StagePosition = 255.657 -696.071
StageZ = 54.986
Magnification = 135
Intensity = 2.98776
ExposureDose = 0
DoseRate = 5.09724
PixelSpacing = 656.139
SpotSize = 7
Defocus = -350.513
ImageShift = 0 0
RotationAngle = 3.34915
ExposureTime = 1.00134
Binning = 1
CameraIndex = 1
DividedBy2 = 1
OperatingMode = 1
UsingCDS = 1
MagIndex = 4
LowDoseConSet = -8
CountsPerElectron = 16
TargetDefocus = -5
DateTime = 25-Mar-21  17:05:18
FilterSlitAndLoss = 0 0
AlignedPieceCoordsVS = 8980 23972 0
XedgeDxyVS = -28.9686 73.7749 0.536458
YedgeDxyVS = 1.75269 -46.2394 0.468179
XedgeDxy = -28.625 73.5
YedgeDxy = 4.5 -52.5

[ZValue = 26]
PieceCoordinates = 8976 27200 0
MinMaxMean = -64 1271 41.0576
TiltAngle = -0.00654056
StagePosition = 243.95 -922.082
StageZ = 54.986
Magnification = 135
Intensity = 2.98776
ExposureDose = 0
DoseRate = 3.0225
PixelSpacing = 656.139
SpotSize = 7
Defocus = -350.513
ImageShift = 0 0
RotationAngle = 3.34915
ExposureTime = 1.00134
Binning = 1
CameraIndex = 1
DividedBy2 = 1
OperatingMode = 1
UsingCDS = 1
MagIndex = 4
LowDoseConSet = -8
CountsPerElectron = 16
TargetDefocus = -5
DateTime = 25-Mar-21  17:05:29
FilterSlitAndLoss = 0 0
AlignedPieceCoordsVS = 8976 27435 0
XedgeDxyVS = -30.6771 105.446 0.50788
XedgeDxy = -30.5 104.5

[ZValue = 27]
PieceCoordinates = 13464 27200 0
MinMaxMean = -77 1367 61.5622
TiltAngle = -0.00654056
StagePosition = -46.8202 -904.043
StageZ = 54.986
Magnification = 135
Intensity = 2.98776
ExposureDose = 0
DoseRate = 5.09152
PixelSpacing = 656.139
SpotSize = 7
Defocus = -350.513
ImageShift = 0 0
RotationAngle = 3.34915
ExposureTime = 1.00134
Binning = 1
CameraIndex = 1
DividedBy2 = 1
OperatingMode = 1
UsingCDS = 1
MagIndex = 4
LowDoseConSet = -8
CountsPerElectron = 16
TargetDefocus = -5
DateTime = 25-Mar-21  17:05:45
FilterSlitAndLoss = 0 0
AlignedPieceCoordsVS = 13493 27383 0
XedgeDxyVS = 1.17902 121.56 0.519487
XedgeDxy = 1.375 121.5

[ZValue = 28]
PieceCoordinates = 13464 23800 0
MinMaxMean = -55 1444 83.7914
TiltAngle = -0.00654056
StagePosition = -35.1153 -678.024
StageZ = 54.986
Magnification = 135
Intensity = 2.98776
ExposureDose = 0
DoseRate = 6.01246
PixelSpacing = 656.139
SpotSize = 7
Defocus = -350.513
ImageShift = 0 0
RotationAngle = 3.34915
ExposureTime = 1.00134
Binning = 1
CameraIndex = 1
DividedBy2 = 1
OperatingMode = 1
UsingCDS = 1
MagIndex = 4
LowDoseConSet = -8
CountsPerElectron = 16
TargetDefocus = -5
DateTime = 25-Mar-21  17:05:55
FilterSlitAndLoss = 0 0
AlignedPieceCoordsVS = 13496 23932 0
XedgeDxyVS = 1.61504 94.1995 0.431047
YedgeDxyVS = 3.48145 -49.2676 0.529646
XedgeDxy = 0.5 89.625
YedgeDxy = 3.375 -49.5

[ZValue = 29]
PieceCoordinates = 13464 20400 0
MinMaxMean = -69 1292 72.9624
TiltAngle = -0.00654056
StagePosition = -23.4133 -452.013
StageZ = 54.986
Magnification = 135
Intensity = 2.98776
ExposureDose = 0
DoseRate = 5.22838
PixelSpacing = 656.139
SpotSize = 7
Defocus = -350.513
ImageShift = 0 0
RotationAngle = 3.34915
ExposureTime = 1.00134
Binning = 1
CameraIndex = 1
DividedBy2 = 1
OperatingMode = 1
UsingCDS = 1
MagIndex = 4
LowDoseConSet = -8
CountsPerElectron = 16
TargetDefocus = -5
DateTime = 25-Mar-21  17:06:06
FilterSlitAndLoss = 0 0
AlignedPieceCoordsVS = 13495 20487 0
XedgeDxyVS = 2.29636 65.6698 0.57169
YedgeDxyVS = -1.12945 -42.7994 0.372738
XedgeDxy = 2.375 66.5
YedgeDxy = 3.5 -52.5

[ZValue = 30]
PieceCoordinates = 13464 17000 0
MinMaxMean = -66 1343 39.5487
TiltAngle = -0.00654056
StagePosition = -11.7045 -226.001
StageZ = 54.986
Magnification = 135
Intensity = 2.98776
ExposureDose = 0
DoseRate = 2.73841
PixelSpacing = 656.139
SpotSize = 7
Defocus = -350.513
ImageShift = 0 0
RotationAngle = 3.34915
ExposureTime = 1.00134
Binning = 1
CameraIndex = 1
DividedBy2 = 1
OperatingMode = 1
UsingCDS = 1
MagIndex = 4
LowDoseConSet = -8
CountsPerElectron = 16
TargetDefocus = -5
DateTime = 25-Mar-21  17:06:16
FilterSlitAndLoss = 0 0
AlignedPieceCoordsVS = 13496 17035 0
XedgeDxyVS = -0.172806 38.2571 0.611734
YedgeDxyVS = 1.18433 -52.7343 0.426669
XedgeDxy = -0.625 36.5
YedgeDxy = 1.375 -50.5

[ZValue = 31]
PieceCoordinates = 13464 13600 0
MinMaxMean = -60 1362 106.799
TiltAngle = -0.00654056
StagePosition = 0.0003567 0.010408
StageZ = 54.986
Magnification = 135
Intensity = 2.98776
ExposureDose = 0
DoseRate = 7.0098
PixelSpacing = 656.139
SpotSize = 7
Defocus = -350.513
ImageShift = 0 0
RotationAngle = 3.34915
ExposureTime = 1.00134
Binning = 1
CameraIndex = 1
DividedBy2 = 1
OperatingMode = 1
UsingCDS = 1
MagIndex = 4
LowDoseConSet = -8
CountsPerElectron = 16
TargetDefocus = -5
DateTime = 25-Mar-21  17:06:27
FilterSlitAndLoss = 0 0
AlignedPieceCoordsVS = 13500 13591 0
XedgeDxyVS = 1.38063 12.4409 0.661238
YedgeDxyVS = -72.0341 150.046 0.0230206
XedgeDxy = 1.5 11.5
YedgeDxy = -47.5 -35.375

[ZValue = 32]
PieceCoordinates = 13464 10200 0
MinMaxMean = -68 1391 141.543
TiltAngle = -0.00654056
StagePosition = 11.7082 226.018
StageZ = 54.986
Magnification = 135
Intensity = 2.98776
ExposureDose = 0
DoseRate = 11.2855
PixelSpacing = 656.139
SpotSize = 7
Defocus = -350.513
ImageShift = 0 0
RotationAngle = 3.34915
ExposureTime = 1.00134
Binning = 1
CameraIndex = 1
DividedBy2 = 1
OperatingMode = 1
UsingCDS = 1
MagIndex = 4
LowDoseConSet = -8
CountsPerElectron = 16
TargetDefocus = -5
DateTime = 25-Mar-21  17:06:37
FilterSlitAndLoss = 0 0
AlignedPieceCoordsVS = 13502 10145 0
XedgeDxyVS = 2.81216 -17.925 0.461822
YedgeDxyVS = 0.871104 -47.3818 0.282218
XedgeDxy = 3.5 -19.5
YedgeDxy = 0.5 -47.5

[ZValue = 33]
PieceCoordinates = 13464 6800 0
MinMaxMean = -58 1421 200.65
TiltAngle = -0.00654056
StagePosition = 23.4111 452.026
StageZ = 54.986
Magnification = 135
Intensity = 2.98776
ExposureDose = 0
DoseRate = 17.0175
PixelSpacing = 656.139
SpotSize = 7
Defocus = -350.513
ImageShift = 0 0
RotationAngle = 3.34915
ExposureTime = 1.00134
Binning = 1
CameraIndex = 1
DividedBy2 = 1
OperatingMode = 1
UsingCDS = 1
MagIndex = 4
LowDoseConSet = -8
CountsPerElectron = 16
TargetDefocus = -5
DateTime = 25-Mar-21  17:06:48
FilterSlitAndLoss = 0 0
AlignedPieceCoordsVS = 13498 6708 0
XedgeDxyVS = 2.29593 -48.0469 0.471684
YedgeDxyVS = -3.88045 -36.23 0.328945
XedgeDxy = 2.5 -48.5
YedgeDxy = -0.5 -42.5

[ZValue = 34]
PieceCoordinates = 13464 3400 0
MinMaxMean = -65 1397 146.685
TiltAngle = -0.00654056
StagePosition = 35.119 678.037
StageZ = 54.986
Magnification = 135
Intensity = 2.98776
ExposureDose = 0
DoseRate = 10.0776
PixelSpacing = 656.139
SpotSize = 7
Defocus = -350.513
ImageShift = 0 0
RotationAngle = 3.34915
ExposureTime = 1.00134
Binning = 1
CameraIndex = 1
DividedBy2 = 1
OperatingMode = 1
UsingCDS = 1
MagIndex = 4
LowDoseConSet = -8
CountsPerElectron = 16
TargetDefocus = -5
DateTime = 25-Mar-21  17:06:58
FilterSlitAndLoss = 0 0
AlignedPieceCoordsVS = 13496 3269 0
XedgeDxyVS = 4.12915 -71.9084 0.324953
YedgeDxyVS = -2.67782 -38.2275 0.44437
XedgeDxy = 4.5 -73.5
YedgeDxy = -2.5 -38.375

[ZValue = 35]
PieceCoordinates = 13464 0 0
MinMaxMean = -73 1372 50.7568
TiltAngle = -0.00654056
StagePosition = 46.8248 904.047
StageZ = 54.986
Magnification = 135
Intensity = 2.98776
ExposureDose = 0
DoseRate = 3.90817
PixelSpacing = 656.139
SpotSize = 7
Defocus = -350.513
ImageShift = 0 0
RotationAngle = 3.34915
ExposureTime = 1.00134
Binning = 1
CameraIndex = 1
DividedBy2 = 1
OperatingMode = 1
UsingCDS = 1
MagIndex = 4
LowDoseConSet = -8
CountsPerElectron = 16
TargetDefocus = -5
DateTime = 25-Mar-21  17:07:09
FilterSlitAndLoss = 0 0
AlignedPieceCoordsVS = 13493 -165 0
XedgeDxyVS = 9.62196 -103.344 0.408597
YedgeDxyVS = -4.18089 -33.6465 0.693595
XedgeDxy = 7.5 -97.5
YedgeDxy = -4.5 -33.375

[ZValue = 36]
PieceCoordinates = 17952 0 0
MinMaxMean = -59 1349 131.986
TiltAngle = -0.00654056
StagePosition = -243.95 922.076
StageZ = 54.986
Magnification = 135
Intensity = 2.98776
ExposureDose = 0
DoseRate = 8.81807
PixelSpacing = 656.139
SpotSize = 7
Defocus = -350.513
ImageShift = 0 0
RotationAngle = 3.34915
ExposureTime = 1.00134
Binning = 1
CameraIndex = 1
DividedBy2 = 1
OperatingMode = 1
UsingCDS = 1
MagIndex = 4
LowDoseConSet = -8
CountsPerElectron = 16
TargetDefocus = -5
DateTime = 25-Mar-21  17:07:24
FilterSlitAndLoss = 0 0
AlignedPieceCoordsVS = 17975 -104 0
XedgeDxyVS = 12.6323 -115.478 0.753569
YedgeDxyVS = -2.60758 -40.5544 0.22678
XedgeDxy = 14.375 -117.5
YedgeDxy = -3.5 -37.5

[ZValue = 37]
PieceCoordinates = 17952 3400 0
MinMaxMean = -83 1468 87.9135
TiltAngle = -0.00654056
StagePosition = -255.655 696.055
StageZ = 54.986
Magnification = 135
Intensity = 2.98776
ExposureDose = 0
DoseRate = 7.42351
PixelSpacing = 656.139
SpotSize = 7
Defocus = -350.513
ImageShift = 0 0
RotationAngle = 3.34915
ExposureTime = 1.00134
Binning = 1
CameraIndex = 1
DividedBy2 = 1
OperatingMode = 1
UsingCDS = 1
MagIndex = 4
LowDoseConSet = -8
CountsPerElectron = 16
TargetDefocus = -5
DateTime = 25-Mar-21  17:07:35
FilterSlitAndLoss = 0 0
AlignedPieceCoordsVS = 17981 3315 0
XedgeDxyVS = 12.3938 -87.7913 0.601086
YedgeDxyVS = 0.255928 -44.7632 0.537374
XedgeDxy = 12.5 -88.375
YedgeDxy = -0.625 -42.5

[ZValue = 38]
PieceCoordinates = 17952 6800 0
MinMaxMean = -45 1402 81.8422
TiltAngle = -0.00654056
StagePosition = -267.361 470.045
StageZ = 54.986
Magnification = 135
Intensity = 2.98776
ExposureDose = 0
DoseRate = 5.83773
PixelSpacing = 656.139
SpotSize = 7
Defocus = -350.513
ImageShift = 0 0
RotationAngle = 3.34915
ExposureTime = 1.00134
Binning = 1
CameraIndex = 1
DividedBy2 = 1
OperatingMode = 1
UsingCDS = 1
MagIndex = 4
LowDoseConSet = -8
CountsPerElectron = 16
TargetDefocus = -5
DateTime = 25-Mar-21  17:07:45
FilterSlitAndLoss = 0 0
AlignedPieceCoordsVS = 17983 6739 0
XedgeDxyVS = 11.8525 -55.5791 0.403936
YedgeDxyVS = -4.67822 -33.9379 0.505164
XedgeDxy = 13.375 -57.5
YedgeDxy = 0.5 -39.5

[ZValue = 39]
PieceCoordinates = 17952 10200 0
MinMaxMean = -51 1480 62.5696
TiltAngle = -0.00654056
StagePosition = -279.067 244.036
StageZ = 54.986
Magnification = 135
Intensity = 2.98776
ExposureDose = 0
DoseRate = 4.45724
PixelSpacing = 656.139
SpotSize = 7
Defocus = -350.513
ImageShift = 0 0
RotationAngle = 3.34915
ExposureTime = 1.00134
Binning = 1
CameraIndex = 1
DividedBy2 = 1
OperatingMode = 1
UsingCDS = 1
MagIndex = 4
LowDoseConSet = -8
CountsPerElectron = 16
TargetDefocus = -5
DateTime = 25-Mar-21  17:07:56
FilterSlitAndLoss = 0 0
AlignedPieceCoordsVS = 17988 10153 0
XedgeDxyVS = 13.7181 -29.6445 0.614231
YedgeDxyVS = 4.11206 -51.4175 0.705457
XedgeDxy = 13.375 -30.5
YedgeDxy = -23.5 -3.5

[ZValue = 40]
PieceCoordinates = 17952 13600 0
MinMaxMean = -65 1379 47.4571
TiltAngle = -0.00654056
StagePosition = -290.773 18.0287
StageZ = 54.986
Magnification = 135
Intensity = 2.98776
ExposureDose = 0
DoseRate = 4.20949
PixelSpacing = 656.139
SpotSize = 7
Defocus = -350.513
ImageShift = 0 0
RotationAngle = 3.34915
ExposureTime = 1.00134
Binning = 1
CameraIndex = 1
DividedBy2 = 1
OperatingMode = 1
UsingCDS = 1
MagIndex = 4
LowDoseConSet = -8
CountsPerElectron = 16
TargetDefocus = -5
DateTime = 25-Mar-21  17:08:06
FilterSlitAndLoss = 0 0
AlignedPieceCoordsVS = 17986 13580 0
XedgeDxyVS = 10.0246 -6.11963 0.577646
YedgeDxyVS = 2.13281 -43.9719 0.610619
XedgeDxy = 9.5 -6.375
YedgeDxy = 2.5 -44.5

[ZValue = 41]
PieceCoordinates = 17952 17000 0
MinMaxMean = -49 1318 62.0324
TiltAngle = -0.00654056
StagePosition = -302.478 -207.982
StageZ = 54.986
Magnification = 135
Intensity = 2.98776
ExposureDose = 0
DoseRate = 5.30312
PixelSpacing = 656.139
SpotSize = 7
Defocus = -350.513
ImageShift = 0 0
RotationAngle = 3.34915
ExposureTime = 1.00134
Binning = 1
CameraIndex = 1
DividedBy2 = 1
OperatingMode = 1
UsingCDS = 1
MagIndex = 4
LowDoseConSet = -8
CountsPerElectron = 16
TargetDefocus = -5
DateTime = 25-Mar-21  17:08:16
FilterSlitAndLoss = 0 0
AlignedPieceCoordsVS = 17985 17004 0
XedgeDxyVS = 11.8764 19.5871 0.398833
YedgeDxyVS = 3.42163 -49.4763 0.590529
XedgeDxy = 11.5 19.5
YedgeDxy = 2.5 -48.5

[ZValue = 42]
PieceCoordinates = 17952 20400 0
MinMaxMean = -52 1352 87.3475
TiltAngle = -0.00654056
StagePosition = -314.185 -433.993
StageZ = 54.986
Magnification = 135
Intensity = 2.98776
ExposureDose = 0
DoseRate = 6.22158
PixelSpacing = 656.139
SpotSize = 7
Defocus = -350.513
ImageShift = 0 0
RotationAngle = 3.34915
ExposureTime = 1.00134
Binning = 1
