PixelSpacing = 76.8
Voltage = 300
ImageFile = mmm.mrc
ImageSize = 2880 2046
Montage = 1
DataMode = 1

[T = SerialEM: UMass_Krios Camera -> 0:Ceta 1:GIF-K3         29-Mar-21  21:30:01    ]

[T =     Tilt axis angle = 85.5, binning = 2  spot = 8  camera = 1]

[ZValue = 0]
PieceCoordinates = 0 0 0
MinMaxMean = 0 7754 189.845
TiltAngle = -0.0219973
StagePosition = 421.161 -578.135
StageZ = -117.684
Magnification = 2250
Intensity = 0.259155
ExposureDose = 0
DoseRate = 4.00224
PixelSpacing = 76.8
SpotSize = 8
Defocus = -319.337
ImageShift = 0 0
RotationAngle = 175.5
ExposureTime = 0.404795
Binning = 2
CameraIndex = 1
DividedBy2 = 0
OperatingMode = 1
UsingCDS = 0
MagIndex = 17
LowDoseConSet = 1
CountsPerElectron = 32
TargetDefocus = -4
DateTime = 29-Mar-21  21:31:12
NavigatorLabel = 109
FilterSlitAndLoss = 40 0
AlignedPieceCoords = 25 101 0
XedgeDxy = 4.02203 56.7269
YedgeDxy = 69.798 50.3682

[ZValue = 1]
PieceCoordinates = 0 1758 0
MinMaxMean = 0 7580 202.297
TiltAngle = -0.0219973
StagePosition = 418.082 -562.974
StageZ = -117.684
Magnification = 2250
Intensity = 0.259155
ExposureDose = 0
DoseRate = 4.30759
PixelSpacing = 76.8
SpotSize = 8
Defocus = -319.337
ImageShift = 0 0
RotationAngle = 175.5
ExposureTime = 0.404795
Binning = 2
CameraIndex = 1
DividedBy2 = 0
OperatingMode = 1
UsingCDS = 0
MagIndex = 17
LowDoseConSet = 1
CountsPerElectron = 32
TargetDefocus = -4
DateTime = 29-Mar-21  21:31:19
NavigatorLabel = 109
FilterSlitAndLoss = 40 0
AlignedPieceCoords = -26 1816 0
XedgeDxy = 15.8151 50.6703
YedgeDxy = -76.072 26.1241

[ZValue = 2]
PieceCoordinates = 0 3516 0
MinMaxMean = 0 7991 80.4096
TiltAngle = -0.0219973
StagePosition = 415.031 -547.836
StageZ = -117.684
Magnification = 2250
Intensity = 0.259155
ExposureDose = 0
DoseRate = 1.36591
PixelSpacing = 76.8
SpotSize = 8
Defocus = -319.337
ImageShift = 0 0
RotationAngle = 175.5
ExposureTime = 0.404795
Binning = 2
CameraIndex = 1
DividedBy2 = 0
OperatingMode = 1
UsingCDS = 0
MagIndex = 17
LowDoseConSet = 1
CountsPerElectron = 32
TargetDefocus = -4
DateTime = 29-Mar-21  21:31:26
NavigatorLabel = 109
FilterSlitAndLoss = 40 0
AlignedPieceCoords = 29 3548 0
XedgeDxy = 8.16064 59.6805

[ZValue = 3]
PieceCoordinates = 2534 0 0
MinMaxMean = 0 8667 335.987
TiltAngle = -0.0219973
StagePosition = 442.14 -573.57
StageZ = -117.684
Magnification = 2250
Intensity = 0.259155
ExposureDose = 0
DoseRate = 7.60806
PixelSpacing = 76.8
SpotSize = 8
Defocus = -319.337
ImageShift = 0 0
RotationAngle = 175.5
ExposureTime = 0.404795
Binning = 2
CameraIndex = 1
DividedBy2 = 0
OperatingMode = 1
UsingCDS = 0
MagIndex = 17
LowDoseConSet = 1
CountsPerElectron = 32
TargetDefocus = -4
DateTime = 29-Mar-21  21:31:36
NavigatorLabel = 109
FilterSlitAndLoss = 40 0
AlignedPieceCoords = 2537 37 0
XedgeDxy = -1.80656 158.031
YedgeDxy = -20.7917 -11.8551

[ZValue = 4]
PieceCoordinates = 2534 1758 0
MinMaxMean = 0 8529 779.35
TiltAngle = -0.0219973
StagePosition = 439.088 -558.441
StageZ = -117.684
Magnification = 2250
Intensity = 0.259155
ExposureDose = 0
DoseRate = 19.1909
PixelSpacing = 76.8
SpotSize = 8
Defocus = -319.337
ImageShift = 0 0
RotationAngle = 175.5
ExposureTime = 0.404795
Binning = 2
CameraIndex = 1
DividedBy2 = 0
OperatingMode = 1
UsingCDS = 0
MagIndex = 17
LowDoseConSet = 1
CountsPerElectron = 32
TargetDefocus = -4
DateTime = 29-Mar-21  21:31:43
NavigatorLabel = 109
FilterSlitAndLoss = 40 0
AlignedPieceCoords = 2533 1773 0
XedgeDxy = 16.0166 36.9508
YedgeDxy = 28.0914 50.8907

[ZValue = 5]
PieceCoordinates = 2534 3516 0
MinMaxMean = 0 7810 757.389
TiltAngle = -0.0219973
StagePosition = 436.04 -543.305
StageZ = -117.684
Magnification = 2250
Intensity = 0.259155
ExposureDose = 0
DoseRate = 18.5952
PixelSpacing = 76.8
SpotSize = 8
Defocus = -319.337
ImageShift = 0 0
RotationAngle = 175.5
ExposureTime = 0.404795
Binning = 2
CameraIndex = 1
DividedBy2 = 0
OperatingMode = 1
UsingCDS = 0
MagIndex = 17
LowDoseConSet = 1
CountsPerElectron = 32
TargetDefocus = -4
DateTime = 29-Mar-21  21:31:50
NavigatorLabel = 109
FilterSlitAndLoss = 40 0
AlignedPieceCoords = 2533 3489 0
XedgeDxy = 16.1254 47.0931

[ZValue = 6]
PieceCoordinates = 5068 0 0
MinMaxMean = 0 1707 32.1269
TiltAngle = -0.0219973
StagePosition = 463.14 -569.037
StageZ = -117.684
Magnification = 2250
Intensity = 0.259155
ExposureDose = 0
DoseRate = 0.210697
PixelSpacing = 76.8
SpotSize = 8
Defocus = -319.337
ImageShift = 0 0
RotationAngle = 175.5
ExposureTime = 0.404795
Binning = 2
CameraIndex = 1
DividedBy2 = 0
OperatingMode = 1
UsingCDS = 0
MagIndex = 17
LowDoseConSet = 1
CountsPerElectron = 32
TargetDefocus = -4
DateTime = 29-Mar-21  21:32:00
NavigatorLabel = 109
FilterSlitAndLoss = 40 0
AlignedPieceCoords = 5078 -94 0
YedgeDxy = 45.1907 -9.28021

[ZValue = 7]
PieceCoordinates = 5068 1758 0
MinMaxMean = 0 7054 40.5775
TiltAngle = -0.0219973
StagePosition = 460.1 -553.91
StageZ = -117.684
Magnification = 2250
Intensity = 0.259155
ExposureDose = 0
DoseRate = 0.414799
PixelSpacing = 76.8
SpotSize = 8
Defocus = -319.337
ImageShift = 0 0
RotationAngle = 175.5
ExposureTime = 0.404795
Binning = 2
CameraIndex = 1
DividedBy2 = 0
OperatingMode = 1
UsingCDS = 0
MagIndex = 17
LowDoseConSet = 1
CountsPerElectron = 32
TargetDefocus = -4
DateTime = 29-Mar-21  21:32:07
NavigatorLabel = 109
FilterSlitAndLoss = 40 0
AlignedPieceCoords = 5038 1701 0
YedgeDxy = -27.0453 -0.212106

[ZValue = 8]
PieceCoordinates = 5068 3516 0
MinMaxMean = 0 8198 62.5415
TiltAngle = -0.0219973
StagePosition = 457.047 -538.765
StageZ = -117.684
Magnification = 2250
Intensity = 0.259155
ExposureDose = 0
DoseRate = 0.93588
PixelSpacing = 76.8
SpotSize = 8
Defocus = -319.337
ImageShift = 0 0
RotationAngle = 175.5
ExposureTime = 0.404795
Binning = 2
CameraIndex = 1
DividedBy2 = 0
OperatingMode = 1
UsingCDS = 0
MagIndex = 17
LowDoseConSet = 1
CountsPerElectron = 32
TargetDefocus = -4
DateTime = 29-Mar-21  21:32:14
NavigatorLabel = 109
FilterSlitAndLoss = 40 0
AlignedPieceCoords = 5058 3450 0

[MontSection = 0]
TiltAngle = -0.0219973
StagePosition = 439.096 -558.461
StageZ = -117.684
Magnification = 2250
Intensity = 0.259155
ExposureDose = 0
DoseRate = 0.93588
PixelSpacing = 76.8
SpotSize = 8
Defocus = -319.337
ImageShift = 0 0
RotationAngle = 175.5
ExposureTime = 0.404795
Binning = 2
CameraIndex = 1
DividedBy2 = 0
OperatingMode = 1
UsingCDS = 0
MagIndex = 17
LowDoseConSet = 1
CountsPerElectron = 32
TargetDefocus = -4
DateTime = 29-Mar-21  21:32:14
NavigatorLabel = 109
FilterSlitAndLoss = 40 0
FullMontSize = 7948 5562
BufISXY = 0 0
ProbeMode = 1
MoveStage = 1
ConSetUsed = 0 1
MontBacklash = 5 -5
ValidBacklash = 5 -5
DriftSettling = 0
CameraModes = 0 1
FocusOffset = -300
NetViewShifts = -0.599843 0.215415
ViewBeamShifts = -1.74963 13.9908
ViewBeamTilts = 0 0
ViewDefocus = -300
Alpha = -999
FilterState = 1 40
FitToPolyID = 0
FullMontNumFrames = 3 3

[ZValue = 9]
PieceCoordinates = 0 0 1
MinMaxMean = 0 6742 309.344
TiltAngle = -0.0219973
StagePosition = -83.221 -385.824
StageZ = -140.036
Magnification = 2250
Intensity = 0.259155
ExposureDose = 0
DoseRate = 6.94148
PixelSpacing = 76.8
SpotSize = 8
Defocus = -319.337
ImageShift = 0 0
RotationAngle = 175.5
ExposureTime = 0.404795
Binning = 2
CameraIndex = 1
DividedBy2 = 0
OperatingMode = 1
UsingCDS = 0
MagIndex = 17
LowDoseConSet = 1
CountsPerElectron = 32
TargetDefocus = -4
DateTime = 29-Mar-21  21:33:09
NavigatorLabel = 110
FilterSlitAndLoss = 40 0
AlignedPieceCoords = 29 50 1
XedgeDxy = 23.375 54.5
YedgeDxy = 120.5 69.5

[ZValue = 10]
PieceCoordinates = 0 1758 1
MinMaxMean = 0 7415 230.572
TiltAngle = -0.0219973
StagePosition = -86.2636 -370.686
StageZ = -140.036
Magnification = 2250
Intensity = 0.259155
ExposureDose = 0
DoseRate = 4.99449
PixelSpacing = 76.8
SpotSize = 8
Defocus = -319.337
ImageShift = 0 0
RotationAngle = 175.5
ExposureTime = 0.404795
Binning = 2
CameraIndex = 1
DividedBy2 = 0
OperatingMode = 1
UsingCDS = 0
MagIndex = 17
LowDoseConSet = 1
CountsPerElectron = 32
TargetDefocus = -4
DateTime = 29-Mar-21  21:33:16
NavigatorLabel = 110
FilterSlitAndLoss = 40 0
AlignedPieceCoords = -45 1745 1
XedgeDxy = 18.25 44.5
YedgeDxy = -32.5 -9.5

[ZValue = 11]
PieceCoordinates = 0 3516 1
MinMaxMean = 0 7201 58.2076
TiltAngle = -0.0219973
StagePosition = -89.309 -355.55
StageZ = -140.036
Magnification = 2250
Intensity = 0.259155
ExposureDose = 0
DoseRate = 0.829296
PixelSpacing = 76.8
SpotSize = 8
Defocus = -319.337
ImageShift = 0 0
RotationAngle = 175.5
ExposureTime = 0.404795
Binning = 2
CameraIndex = 1
DividedBy2 = 0
OperatingMode = 1
UsingCDS = 0
MagIndex = 17
LowDoseConSet = 1
CountsPerElectron = 32
TargetDefocus = -4
DateTime = 29-Mar-21  21:33:23
NavigatorLabel = 110
FilterSlitAndLoss = 40 0
AlignedPieceCoords = 9 3510 1
XedgeDxy = 17.5 28.625

[ZValue = 12]
PieceCoordinates = 2534 0 1
MinMaxMean = 0 7111 339.287
TiltAngle = -0.0219973
StagePosition = -62.2124 -381.288
StageZ = -140.036
Magnification = 2250
Intensity = 0.259155
ExposureDose = 0
DoseRate = 7.69061
PixelSpacing = 76.8
SpotSize = 8
Defocus = -319.337
ImageShift = 0 0
RotationAngle = 175.5
ExposureTime = 0.404795
Binning = 2
CameraIndex = 1
DividedBy2 = 0
OperatingMode = 1
UsingCDS = 0
MagIndex = 17
LowDoseConSet = 1
CountsPerElectron = 32
TargetDefocus = -4
DateTime = 29-Mar-21  21:33:33
NavigatorLabel = 110
FilterSlitAndLoss = 40 0
AlignedPieceCoords = 2492 -11 1
XedgeDxy = -124.5 8.5
YedgeDxy = 12.5 5.5

[ZValue = 13]
PieceCoordinates = 2534 1758 1
MinMaxMean = 0 7579 485.797
TiltAngle = -0.0219973
StagePosition = -65.2578 -366.149
StageZ = -140.036
Magnification = 2250
Intensity = 0.259155
ExposureDose = 0
DoseRate = 11.4105
PixelSpacing = 76.8
SpotSize = 8
Defocus = -319.337
ImageShift = 0 0
RotationAngle = 175.5
ExposureTime = 0.404795
Binning = 2
CameraIndex = 1
DividedBy2 = 0
OperatingMode = 1
UsingCDS = 0
MagIndex = 17
LowDoseConSet = 1
CountsPerElectron = 32
TargetDefocus = -4
DateTime = 29-Mar-21  21:33:40
NavigatorLabel = 110
FilterSlitAndLoss = 40 0
AlignedPieceCoords = 2495 1710 1
XedgeDxy = -15.5 -119.5
YedgeDxy = -34.5 -6.375

[ZValue = 14]
PieceCoordinates = 2534 3516 1
MinMaxMean = 0 8347 794.996
TiltAngle = -0.0219973
StagePosition = -68.312 -351.009
StageZ = -140.036
Magnification = 2250
Intensity = 0.259155
ExposureDose = 0
DoseRate = 19.6156
PixelSpacing = 76.8
SpotSize = 8
Defocus = -319.337
ImageShift = 0 0
RotationAngle = 175.5
ExposureTime = 0.404795
Binning = 2
CameraIndex = 1
DividedBy2 = 0
OperatingMode = 1
UsingCDS = 0
MagIndex = 17
LowDoseConSet = 1
CountsPerElectron = 32
TargetDefocus = -4
DateTime = 29-Mar-21  21:33:47
NavigatorLabel = 110
FilterSlitAndLoss = 40 0
AlignedPieceCoords = 2548 3479 1
XedgeDxy = -0.5 -52.5

[ZValue = 15]
PieceCoordinates = 5068 0 1
MinMaxMean = 0 852 29.0781
TiltAngle = -0.0219973
StagePosition = -41.2066 -376.749
StageZ = -140.036
Magnification = 2250
Intensity = 0.259155
ExposureDose = 0
DoseRate = 0.136916
PixelSpacing = 76.8
SpotSize = 8
Defocus = -319.337
ImageShift = 0 0
RotationAngle = 175.5
ExposureTime = 0.404795
Binning = 2
CameraIndex = 1
DividedBy2 = 0
OperatingMode = 1
UsingCDS = 0
MagIndex = 17
LowDoseConSet = 1
CountsPerElectron = 32
TargetDefocus = -4
DateTime = 29-Mar-21  21:33:57
NavigatorLabel = 110
FilterSlitAndLoss = 40 0
AlignedPieceCoords = 5090 5 1
YedgeDxy = -36.5 -15.5

[ZValue = 16]
PieceCoordinates = 5068 1758 1
MinMaxMean = 0 2661 25.9499
TiltAngle = -0.0219973
StagePosition = -44.2511 -361.615
StageZ = -140.036
Magnification = 2250
Intensity = 0.259155
ExposureDose = 0
DoseRate = 0.0610673
PixelSpacing = 76.8
SpotSize = 8
Defocus = -319.337
ImageShift = 0 0
RotationAngle = 175.5
ExposureTime = 0.404795
Binning = 2
CameraIndex = 1
DividedBy2 = 0
OperatingMode = 1
UsingCDS = 0
MagIndex = 17
LowDoseConSet = 1
CountsPerElectron = 32
TargetDefocus = -4
DateTime = 29-Mar-21  21:34:04
NavigatorLabel = 110
FilterSlitAndLoss = 40 0
AlignedPieceCoords = 5065 1803 1
YedgeDxy = -100.5 25.5

[ZValue = 17]
PieceCoordinates = 5068 3516 1
MinMaxMean = 0 1399 20.7107
TiltAngle = -0.0219973
StagePosition = -47.2917 -346.479
StageZ = -140.036
Magnification = 2250
Intensity = 0.259155
ExposureDose = 0
DoseRate = 0.390599
PixelSpacing = 76.8
SpotSize = 8
Defocus = -319.337
ImageShift = 0 0
RotationAngle = 175.5
ExposureTime = 0.404795
Binning = 2
CameraIndex = 1
DividedBy2 = 0
OperatingMode = 1
UsingCDS = 0
MagIndex = 17
LowDoseConSet = 1
CountsPerElectron = 32
TargetDefocus = -4
DateTime = 29-Mar-21  21:34:11
NavigatorLabel = 110
FilterSlitAndLoss = 40 0
AlignedPieceCoords = 5124 3533 1

[MontSection = 1]
TiltAngle = -0.0219973
StagePosition = -65.2549 -366.172
StageZ = -140.036
Magnification = 2250
Intensity = 0.259155
ExposureDose = 0
DoseRate = 0.390599
PixelSpacing = 76.8
SpotSize = 8
Defocus = -319.337
ImageShift = 0 0
RotationAngle = 175.5
ExposureTime = 0.404795
Binning = 2
CameraIndex = 1
DividedBy2 = 0
OperatingMode = 1
UsingCDS = 0
MagIndex = 17
LowDoseConSet = 1
CountsPerElectron = 32
TargetDefocus = -4
DateTime = 29-Mar-21  21:34:11
NavigatorLabel = 110
FilterSlitAndLoss = 40 0
FullMontSize = 7948 5562
BufISXY = 0 0
ProbeMode = 1
MoveStage = 1
ConSetUsed = 0 1
MontBacklash = 5 -5
ValidBacklash = 5 -5
DriftSettling = 0
CameraModes = 0 1
FocusOffset = -300
NetViewShifts = -0.599843 0.215415
ViewBeamShifts = -1.74963 13.9908
ViewBeamTilts = 0 0
ViewDefocus = -300
Alpha = -999
FilterState = 1 40
FitToPolyID = 0
FullMontNumFrames = 3 3

[ZValue = 18]
PieceCoordinates = 0 0 2
MinMaxMean = 0 7245 52.2028
TiltAngle = -0.0219973
StagePosition = -256.673 -388.653
StageZ = -140.806
Magnification = 2250
Intensity = 0.259155
ExposureDose = 0
DoseRate = 0.681597
PixelSpacing = 76.8
SpotSize = 8
Defocus = -319.337
ImageShift = 0 0
RotationAngle = 175.5
ExposureTime = 0.404795
Binning = 2
CameraIndex = 1
DividedBy2 = 0
OperatingMode = 1
UsingCDS = 0
MagIndex = 17
LowDoseConSet = 1
CountsPerElectron = 32
TargetDefocus = -4
DateTime = 29-Mar-21  21:35:04
NavigatorLabel = 111
FilterSlitAndLoss = 40 0
AlignedPieceCoords = 12 2 2
XedgeDxy = -9.5 -57.5
YedgeDxy = 75.5 0.5

[ZValue = 19]
PieceCoordinates = 0 1758 2
MinMaxMean = 0 9916 226.722
TiltAngle = -0.0219973
StagePosition = -259.718 -373.518
StageZ = -140.806
Magnification = 2250
Intensity = 0.259155
ExposureDose = 0
DoseRate = 4.90109
PixelSpacing = 76.8
SpotSize = 8
Defocus = -319.337
ImageShift = 0 0
RotationAngle = 175.5
ExposureTime = 0.404795
Binning = 2
CameraIndex = 1
DividedBy2 = 0
OperatingMode = 1
UsingCDS = 0
MagIndex = 17
LowDoseConSet = 1
CountsPerElectron = 32
TargetDefocus = -4
DateTime = 29-Mar-21  21:35:11
NavigatorLabel = 111
FilterSlitAndLoss = 40 0
AlignedPieceCoords = -50 1773 2
XedgeDxy = 15.625 39.5
YedgeDxy = -154.5 -6.5

[ZValue = 20]
PieceCoordinates = 0 3516 2
MinMaxMean = 0 7894 83.6307
TiltAngle = -0.0219973
StagePosition = -262.765 -358.379
StageZ = -140.806
Magnification = 2250
Intensity = 0.259155
ExposureDose = 0
DoseRate = 1.43968
PixelSpacing = 76.8
SpotSize = 8
Defocus = -319.337
ImageShift = 0 0
RotationAngle = 175.5
ExposureTime = 0.404795
Binning = 2
CameraIndex = 1
DividedBy2 = 0
OperatingMode = 1
UsingCDS = 0
MagIndex = 17
LowDoseConSet = 1
CountsPerElectron = 32
TargetDefocus = -4
DateTime = 29-Mar-21  21:35:18
NavigatorLabel = 111
FilterSlitAndLoss = 40 0
AlignedPieceCoords = 61 3530 2
XedgeDxy = 11.25 43.625

[ZValue = 21]
PieceCoordinates = 2534 0 2
MinMaxMean = 0 6712 38.1003
TiltAngle = -0.0219973
StagePosition = -235.666 -384.118
StageZ = -140.806
Magnification = 2250
Intensity = 0.259155
ExposureDose = 0
DoseRate = 0.346121
PixelSpacing = 76.8
SpotSize = 8
Defocus = -319.337
ImageShift = 0 0
RotationAngle = 175.5
ExposureTime = 0.404795
Binning = 2
CameraIndex = 1
DividedBy2 = 0
OperatingMode = 1
UsingCDS = 0
MagIndex = 17
LowDoseConSet = 1
CountsPerElectron = 32
TargetDefocus = -4
DateTime = 29-Mar-21  21:35:28
NavigatorLabel = 111
FilterSlitAndLoss = 40 0
AlignedPieceCoords = 2542 45 2
XedgeDxy = -13.5 58.5
YedgeDxy = -10.5 27.5

[ZValue = 22]
PieceCoordinates = 2534 1758 2
MinMaxMean = 0 8748 485.747
TiltAngle = -0.0219973
StagePosition = -238.705 -368.979
StageZ = -140.806
Magnification = 2250
Intensity = 0.259155
ExposureDose = 0
DoseRate = 11.4064
PixelSpacing = 76.8
SpotSize = 8
Defocus = -319.337
ImageShift = 0 0
RotationAngle = 175.5
ExposureTime = 0.404795
Binning = 2
CameraIndex = 1
DividedBy2 = 0
OperatingMode = 1
UsingCDS = 0
MagIndex = 17
LowDoseConSet = 1
CountsPerElectron = 32
TargetDefocus = -4
DateTime = 29-Mar-21  21:35:35
NavigatorLabel = 111
FilterSlitAndLoss = 40 0
AlignedPieceCoords = 2527 1755 2
XedgeDxy = 23.5 -36.5
YedgeDxy = -7.5 88.5

[ZValue = 23]
PieceCoordinates = 2534 3516 2
MinMaxMean = 0 9871 574.94
TiltAngle = -0.0219973
StagePosition = -241.758 -353.838
StageZ = -140.806
Magnification = 2250
Intensity = 0.259155
ExposureDose = 0
DoseRate = 13.7264
PixelSpacing = 76.8
SpotSize = 8
Defocus = -319.337
ImageShift = 0 0
RotationAngle = 175.5
ExposureTime = 0.404795
Binning = 2
CameraIndex = 1
DividedBy2 = 0
OperatingMode = 1
UsingCDS = 0
MagIndex = 17
LowDoseConSet = 1
CountsPerElectron = 32
TargetDefocus = -4
DateTime = 29-Mar-21  21:35:42
NavigatorLabel = 111
FilterSlitAndLoss = 40 0
AlignedPieceCoords = 2539 3479 2
XedgeDxy = 23.5 21.5

[ZValue = 24]
PieceCoordinates = 5068 0 2
MinMaxMean = 0 2146 17.3269
TiltAngle = -0.0219973
StagePosition = -214.653 -379.575
StageZ = -140.806
Magnification = 2250
Intensity = 0.259155
ExposureDose = 0
DoseRate = 0.326476
PixelSpacing = 76.8
SpotSize = 8
Defocus = -319.337
ImageShift = 0 0
RotationAngle = 175.5
ExposureTime = 0.404795
Binning = 2
CameraIndex = 1
DividedBy2 = 0
OperatingMode = 1
UsingCDS = 0
MagIndex = 17
LowDoseConSet = 1
CountsPerElectron = 32
TargetDefocus = -4
DateTime = 29-Mar-21  21:35:52
NavigatorLabel = 111
FilterSlitAndLoss = 40 0
AlignedPieceCoords = 5101 -7 2
YedgeDxy = 48.5 18.5

[ZValue = 25]
PieceCoordinates = 5068 1758 2
MinMaxMean = 0 4039 26.8307
TiltAngle = -0.0219973
StagePosition = -217.701 -364.449
StageZ = -140.806
Magnification = 2250
Intensity = 0.259155
ExposureDose = 0
DoseRate = 0.0823578
PixelSpacing = 76.8
SpotSize = 8
Defocus = -319.337
ImageShift = 0 0
RotationAngle = 175.5
ExposureTime = 0.404795
Binning = 2
CameraIndex = 1
DividedBy2 = 0
OperatingMode = 1
UsingCDS = 0
MagIndex = 17
LowDoseConSet = 1
CountsPerElectron = 32
TargetDefocus = -4
DateTime = 29-Mar-21  21:35:59
NavigatorLabel = 111
FilterSlitAndLoss = 40 0
AlignedPieceCoords = 5064 1739 2
YedgeDxy = 92.5 -54.5

[ZValue = 26]
PieceCoordinates = 5068 3516 2
MinMaxMean = 0 2449 39.5756
TiltAngle = -0.0219973
StagePosition = -220.748 -349.302
StageZ = -140.806
Magnification = 2250
Intensity = 0.259155
ExposureDose = 0
DoseRate = 0.391267
PixelSpacing = 76.8
SpotSize = 8
Defocus = -319.337
ImageShift = 0 0
RotationAngle = 175.5
ExposureTime = 0.404795
Binning = 2
CameraIndex = 1
DividedBy2 = 0
OperatingMode = 1
UsingCDS = 0
MagIndex = 17
LowDoseConSet = 1
CountsPerElectron = 32
TargetDefocus = -4
DateTime = 29-Mar-21  21:36:05
NavigatorLabel = 111
FilterSlitAndLoss = 40 0
AlignedPieceCoords = 5011 3505 2

[MontSection = 2]
TiltAngle = -0.0219973
StagePosition = -238.703 -369.003
StageZ = -140.806
Magnification = 2250
Intensity = 0.259155
ExposureDose = 0
DoseRate = 0.391267
PixelSpacing = 76.8
SpotSize = 8
Defocus = -319.337
ImageShift = 0 0
RotationAngle = 175.5
ExposureTime = 0.404795
Binning = 2
CameraIndex = 1
DividedBy2 = 0
OperatingMode = 1
UsingCDS = 0
MagIndex = 17
LowDoseConSet = 1
CountsPerElectron = 32
TargetDefocus = -4
DateTime = 29-Mar-21  21:36:05
NavigatorLabel = 111
FilterSlitAndLoss = 40 0
FullMontSize = 7948 5562
BufISXY = 0 0
ProbeMode = 1
MoveStage = 1
ConSetUsed = 0 1
MontBacklash = 5 -5
ValidBacklash = 5 -5
DriftSettling = 0
CameraModes = 0 1
FocusOffset = -300
NetViewShifts = -0.599843 0.215415
ViewBeamShifts = -1.74963 13.9908
ViewBeamTilts = 0 0
ViewDefocus = -300
Alpha = -999
FilterState = 1 40
FitToPolyID = 0
FullMontNumFrames = 3 3

[ZValue = 27]
PieceCoordinates = 0 0 3
MinMaxMean = 0 6866 77.2485
TiltAngle = -0.0219973
StagePosition = -695.888 -7.52883
StageZ = -166.842
Magnification = 2250
Intensity = 0.259155
ExposureDose = 0
DoseRate = 1.28664
PixelSpacing = 76.8
SpotSize = 8
Defocus = -319.337
ImageShift = 0 0
RotationAngle = 175.5
ExposureTime = 0.404795
Binning = 2
CameraIndex = 1
DividedBy2 = 0
OperatingMode = 1
UsingCDS = 0
MagIndex = 17
LowDoseConSet = 1
CountsPerElectron = 32
TargetDefocus = -4
DateTime = 29-Mar-21  21:37:02
NavigatorLabel = 112
FilterSlitAndLoss = 40 0
AlignedPieceCoords = 30 35 3
XedgeDxy = 50.2852 24.641
YedgeDxy = 8.80078 4.35232

[ZValue = 28]
PieceCoordinates = 0 1758 3
MinMaxMean = 0 7349 55.6419
TiltAngle = -0.0219973
StagePosition = -698.936 7.60114
StageZ = -166.842
Magnification = 2250
Intensity = 0.259155
ExposureDose = 0
DoseRate = 0.769248
PixelSpacing = 76.8
SpotSize = 8
Defocus = -319.337
ImageShift = 0 0
RotationAngle = 175.5
ExposureTime = 0.404795
Binning = 2
CameraIndex = 1
DividedBy2 = 0
OperatingMode = 1
UsingCDS = 0
MagIndex = 17
LowDoseConSet = 1
CountsPerElectron = 32
TargetDefocus = -4
DateTime = 29-Mar-21  21:37:08
NavigatorLabel = 112
FilterSlitAndLoss = 40 0
AlignedPieceCoords = 36 1786 3
XedgeDxy = 49.8668 8.19971
YedgeDxy = -48.1342 6.04073

[ZValue = 29]
PieceCoordinates = 0 3516 3
MinMaxMean = 0 8032 34.7907
TiltAngle = -0.0219973
StagePosition = -701.981 22.7437
StageZ = -166.842
Magnification = 2250
Intensity = 0.259155
ExposureDose = 0
DoseRate = 0.270449
PixelSpacing = 76.8
SpotSize = 8
Defocus = -319.337
ImageShift = 0 0
RotationAngle = 175.5
ExposureTime = 0.404795
Binning = 2
CameraIndex = 1
DividedBy2 = 0
OperatingMode = 1
UsingCDS = 0
MagIndex = 17
LowDoseConSet = 1
CountsPerElectron = 32
TargetDefocus = -4
DateTime = 29-Mar-21  21:37:15
NavigatorLabel = 112
FilterSlitAndLoss = 40 0
AlignedPieceCoords = 101 3529 3
XedgeDxy = 95.8741 8.10263

[ZValue = 30]
PieceCoordinates = 2534 0 3
MinMaxMean = 0 7091 387.783
TiltAngle = -0.0219973
StagePosition = -674.878 -3.00042
StageZ = -166.842
Magnification = 2250
Intensity = 0.259155
ExposureDose = 0
DoseRate = 8.90679
PixelSpacing = 76.8
SpotSize = 8
Defocus = -319.337
ImageShift = 0 0
RotationAngle = 175.5
ExposureTime = 0.404795
Binning = 2
CameraIndex = 1
DividedBy2 = 0
OperatingMode = 1
UsingCDS = 0
MagIndex = 17
LowDoseConSet = 1
CountsPerElectron = 32
TargetDefocus = -4
DateTime = 29-Mar-21  21:37:26
NavigatorLabel = 112
FilterSlitAndLoss = 40 0
AlignedPieceCoords = 2499 13 3
XedgeDxy = 25.0376 14.0678
YedgeDxy = -32.0286 2.41643

[ZValue = 31]
PieceCoordinates = 2534 1758 3
MinMaxMean = 0 8057 467.13
TiltAngle = -0.0219973
StagePosition = -677.927 12.1306
StageZ = -166.842
Magnification = 2250
Intensity = 0.259155
ExposureDose = 0
DoseRate = 10.9285
PixelSpacing = 76.8
SpotSize = 8
Defocus = -319.337
ImageShift = 0 0
RotationAngle = 175.5
ExposureTime = 0.404795
Binning = 2
CameraIndex = 1
DividedBy2 = 0
OperatingMode = 1
UsingCDS = 0
MagIndex = 17
LowDoseConSet = 1
CountsPerElectron = 32
TargetDefocus = -4
DateTime = 29-Mar-21  21:37:32
NavigatorLabel = 112
FilterSlitAndLoss = 40 0
AlignedPieceCoords = 2519 1783 3
XedgeDxy = 42.4963 119.655
YedgeDxy = -46.2017 10.7503

[ZValue = 32]
PieceCoordinates = 2534 3516 3
MinMaxMean = 0 8563 676.301
TiltAngle = -0.0219973
StagePosition = -680.976 27.2784
StageZ = -166.842
Magnification = 2250
Intensity = 0.259155
ExposureDose = 0
DoseRate = 16.4072
PixelSpacing = 76.8
SpotSize = 8
Defocus = -319.337
ImageShift = 0 0
RotationAngle = 175.5
ExposureTime = 0.404795
Binning = 2
CameraIndex = 1
DividedBy2 = 0
OperatingMode = 1
UsingCDS = 0
MagIndex = 17
LowDoseConSet = 1
CountsPerElectron = 32
TargetDefocus = -4
DateTime = 29-Mar-21  21:37:39
NavigatorLabel = 112
FilterSlitAndLoss = 40 0
AlignedPieceCoords = 2555 3513 3
XedgeDxy = 42.8799 11.2601

[ZValue = 33]
PieceCoordinates = 5068 0 3
MinMaxMean = 0 1467 27.338
TiltAngle = -0.0219973
StagePosition = -653.865 1.53846
StageZ = -166.842
Magnification = 2250
Intensity = 0.259155
ExposureDose = 0
DoseRate = 0.0947199
PixelSpacing = 76.8
SpotSize = 8
Defocus = -319.337
ImageShift = 0 0
RotationAngle = 175.5
ExposureTime = 0.404795
Binning = 2
CameraIndex = 1
DividedBy2 = 0
OperatingMode = 1
UsingCDS = 0
MagIndex = 17
LowDoseConSet = 1
CountsPerElectron = 32
TargetDefocus = -4
DateTime = 29-Mar-21  21:37:50
NavigatorLabel = 112
FilterSlitAndLoss = 40 0
AlignedPieceCoords = 5006 -11 3
YedgeDxy = -3.29615 36.9427

[ZValue = 34]
PieceCoordinates = 5068 1758 3
MinMaxMean = 0 7704 28.2477
TiltAngle = -0.0219973
StagePosition = -656.92 16.68
StageZ = -166.842
Magnification = 2250
Intensity = 0.259155
ExposureDose = 0
DoseRate = 0.113804
PixelSpacing = 76.8
SpotSize = 8
Defocus = -319.337
ImageShift = 0 0
RotationAngle = 175.5
ExposureTime = 0.404795
Binning = 2
CameraIndex = 1
DividedBy2 = 0
OperatingMode = 1
UsingCDS = 0
MagIndex = 17
LowDoseConSet = 1
CountsPerElectron = 32
TargetDefocus = -4
DateTime = 29-Mar-21  21:37:56
NavigatorLabel = 112
FilterSlitAndLoss = 40 0
AlignedPieceCoords = 5007 1699 3
YedgeDxy = -51.1762 7.93528

[ZValue = 35]
PieceCoordinates = 5068 3516 3
MinMaxMean = 0 8002 53.101
TiltAngle = -0.0219973
StagePosition = -659.957 31.8204
StageZ = -166.842
Magnification = 2250
Intensity = 0.259155
ExposureDose = 0
DoseRate = 0.703111
PixelSpacing = 76.8
SpotSize = 8
Defocus = -319.337
ImageShift = 0 0
RotationAngle = 175.5
ExposureTime = 0.404795
Binning = 2
CameraIndex = 1
DividedBy2 = 0
OperatingMode = 1
UsingCDS = 0
MagIndex = 17
LowDoseConSet = 1
CountsPerElectron = 32
TargetDefocus = -4
DateTime = 29-Mar-21  21:38:03
NavigatorLabel = 112
FilterSlitAndLoss = 40 0
AlignedPieceCoords = 5052 3475 3

[MontSection = 3]
TiltAngle = -0.0219973
StagePosition = -677.92 12.1243
StageZ = -166.842
Magnification = 2250
Intensity = 0.259155
ExposureDose = 0
DoseRate = 0.703111
PixelSpacing = 76.8
SpotSize = 8
Defocus = -319.337
ImageShift = 0 0
RotationAngle = 175.5
ExposureTime = 0.404795
Binning = 2
CameraIndex = 1
DividedBy2 = 0
OperatingMode = 1
UsingCDS = 0
MagIndex = 17
LowDoseConSet = 1
CountsPerElectron = 32
TargetDefocus = -4
DateTime = 29-Mar-21  21:38:03
NavigatorLabel = 112
FilterSlitAndLoss = 40 0
FullMontSize = 7948 5562
BufISXY = 0 0
ProbeMode = 1
MoveStage = 1
ConSetUsed = 0 1
MontBacklash = 5 -5
ValidBacklash = 5 -5
DriftSettling = 0
CameraModes = 0 1
FocusOffset = -300
NetViewShifts = -0.599843 0.215415
ViewBeamShifts = -1.74963 13.9908
ViewBeamTilts = 0 0
ViewDefocus = -300
Alpha = -999
FilterState = 1 40
FitToPolyID = 0
FullMontNumFrames = 3 3

[ZValue = 36]
PieceCoordinates = 0 0 4
MinMaxMean = 0 7419 55.3638
TiltAngle = -0.0219973
StagePosition = -472.2 104.756
StageZ = -164.055
Magnification = 2250
Intensity = 0.259155
ExposureDose = 0
DoseRate = 0.766072
PixelSpacing = 76.8
SpotSize = 8
Defocus = -319.337
ImageShift = 0 0
RotationAngle = 175.5
ExposureTime = 0.404795
Binning = 2
CameraIndex = 1
DividedBy2 = 0
OperatingMode = 1
UsingCDS = 0
MagIndex = 17
LowDoseConSet = 1
CountsPerElectron = 32
TargetDefocus = -4
DateTime = 29-Mar-21  21:38:58
NavigatorLabel = 113
FilterSlitAndLoss = 40 0
AlignedPieceCoords = -47 53 4
XedgeDxy = -1.5 1.5
YedgeDxy = -118.5 22.5

[ZValue = 37]
PieceCoordinates = 0 1758 4
MinMaxMean = 0 7436 73.9213
TiltAngle = -0.0219973
StagePosition = -475.252 119.894
StageZ = -164.055
Magnification = 2250
Intensity = 0.259155
ExposureDose = 0
DoseRate = 1.20533
PixelSpacing = 76.8
SpotSize = 8
Defocus = -319.337
ImageShift = 0 0
RotationAngle = 175.5
ExposureTime = 0.404795
Binning = 2
CameraIndex = 1
DividedBy2 = 0
OperatingMode = 1
UsingCDS = 0
MagIndex = 17
LowDoseConSet = 1
CountsPerElectron = 32
TargetDefocus = -4
DateTime = 29-Mar-21  21:39:05
NavigatorLabel = 113
FilterSlitAndLoss = 40 0
AlignedPieceCoords = 32 1840 4
XedgeDxy = -19.5 195.5
YedgeDxy = 31.5 43.5

[ZValue = 38]
PieceCoordinates = 0 3516 4
MinMaxMean = 0 7131 57.1931
TiltAngle = -0.0219973
StagePosition = -478.302 135.031
StageZ = -164.055
Magnification = 2250
Intensity = 0.259155
ExposureDose = 0
DoseRate = 0.806469
PixelSpacing = 76.8
SpotSize = 8
Defocus = -319.337
ImageShift = 0 0
RotationAngle = 175.5
ExposureTime = 0.404795
Binning = 2
CameraIndex = 1
DividedBy2 = 0
OperatingMode = 1
UsingCDS = 0
MagIndex = 17
LowDoseConSet = 1
CountsPerElectron = 32
TargetDefocus = -4
DateTime = 29-Mar-21  21:39:11
NavigatorLabel = 113
FilterSlitAndLoss = 40 0
AlignedPieceCoords = 20 3521 4
XedgeDxy = 22.5 0.625

[ZValue = 39]
PieceCoordinates = 2534 0 4
MinMaxMean = 0 7055 147.362
TiltAngle = -0.0219973
StagePosition = -451.196 109.292
StageZ = -164.055
Magnification = 2250
Intensity = 0.259155
ExposureDose = 0
DoseRate = 2.97042
PixelSpacing = 76.8
SpotSize = 8
Defocus = -319.337
