PixelSpacing = 5.4
ImageFile = TS_01.mrc
ImageSize = 924 958
DataMode = 1

[T = SerialEM: Digitized on EMBL Krios                       30-Nov-15  15:14:20    ]

[T =     Tilt axis angle = 85.3, binning = 4  spot = 8  camera = 2]

[ZValue = 0]
TiltAngle = 0.000999877
StagePosition = 20.7936 155.287
StageZ = 163.803
Magnification = 105000
Intensity = 0.00900259
ExposureDose = 0
PixelSpacing = 5.4
SpotSize = 8
Defocus = 2.68083
ImageShift = -0.0108126 -0.121079
RotationAngle = 175.3
ExposureTime = 0.8
Binning = 4
CameraIndex = 2
DividedBy2 = 1
MagIndex = 31
MinMaxMean = 5 1403 623.699
TargetDefocus = -4
SubFramePath = D:\DATA\Flo\HGK149_20151130\frames\TS_01_000_0.0.mrc
NumSubFrames = 8
DateTime = 30-Nov-15  15:21:38

[ZValue = 1]
TiltAngle = 3.00113
StagePosition = 20.7926 155.267
StageZ = 163.803
Magnification = 105000
Intensity = 0.00900259
ExposureDose = 0
PixelSpacing = 5.4
SpotSize = 8
Defocus = 2.58763
ImageShift = -0.100277 -0.254816
RotationAngle = 175.3
ExposureTime = 0.8
Binning = 4
CameraIndex = 2
DividedBy2 = 1
MagIndex = 31
MinMaxMean = 33 1259 624.079
TargetDefocus = -4
SubFramePath = D:\DATA\Flo\HGK149_20151130\frames\TS_01_001_3.0.mrc
NumSubFrames = 8
DateTime = 30-Nov-15  15:22:37

[ZValue = 2]
TiltAngle = -2.99863
StagePosition = 20.7955 155.292
StageZ = 163.803
Magnification = 105000
Intensity = 0.00900259
ExposureDose = 0
PixelSpacing = 5.4
SpotSize = 8
Defocus = 2.54449
ImageShift = 0.00951526 -0.0952629
RotationAngle = 175.3
ExposureTime = 0.8
Binning = 4
CameraIndex = 2
DividedBy2 = 1
MagIndex = 31
MinMaxMean = 23 1335 622.672
TargetDefocus = -4
SubFramePath = D:\DATA\Flo\HGK149_20151130\frames\TS_01_002_-3.0.mrc
NumSubFrames = 8
DateTime = 30-Nov-15  15:24:24

[ZValue = 3]
TiltAngle = -5.99876
StagePosition = 20.7965 155.264
StageZ = 163.803
Magnification = 105000
Intensity = 0.00900259
ExposureDose = 0
PixelSpacing = 5.4
SpotSize = 8
Defocus = 2.5591
ImageShift = -0.00403925 -0.117646
RotationAngle = 175.3
ExposureTime = 0.8
Binning = 4
CameraIndex = 2
DividedBy2 = 1
MagIndex = 31
MinMaxMean = 9 1258 620.849
TargetDefocus = -4
SubFramePath = D:\DATA\Flo\HGK149_20151130\frames\TS_01_003_-6.0.mrc
NumSubFrames = 8
DateTime = 30-Nov-15  15:25:13

[ZValue = 4]
TiltAngle = 6.00126
StagePosition = 20.7926 155.288
StageZ = 163.803
Magnification = 105000
Intensity = 0.00900259
ExposureDose = 0
PixelSpacing = 5.4
SpotSize = 8
Defocus = 2.45839
ImageShift = -0.085006 -0.244366
RotationAngle = 175.3
ExposureTime = 0.8
Binning = 4
CameraIndex = 2
DividedBy2 = 1
MagIndex = 31
MinMaxMean = 10 1357 623.973
TargetDefocus = -4
SubFramePath = D:\DATA\Flo\HGK149_20151130\frames\TS_01_004_6.0.mrc
NumSubFrames = 8
DateTime = 30-Nov-15  15:26:13

[ZValue = 5]
TiltAngle = 9.0014
StagePosition = 20.7955 155.265
StageZ = 163.803
Magnification = 105000
Intensity = 0.00900259
ExposureDose = 0
PixelSpacing = 5.4
SpotSize = 8
Defocus = 2.2871
ImageShift = -0.125857 -0.305023
RotationAngle = 175.3
ExposureTime = 0.8
Binning = 4
CameraIndex = 2
DividedBy2 = 1
MagIndex = 31
MinMaxMean = 21 1290 620.293
TargetDefocus = -4
SubFramePath = D:\DATA\Flo\HGK149_20151130\frames\TS_01_005_9.0.mrc
NumSubFrames = 8
DateTime = 30-Nov-15  15:27:13

[ZValue = 6]
TiltAngle = -8.9989
StagePosition = 20.8014 155.291
StageZ = 163.803
Magnification = 105000
Intensity = 0.00900259
ExposureDose = 0
PixelSpacing = 5.4
SpotSize = 8
Defocus = 2.46168
ImageShift = 0.0351023 -0.049441
RotationAngle = 175.3
ExposureTime = 0.8
Binning = 4
CameraIndex = 2
DividedBy2 = 1
MagIndex = 31
MinMaxMean = 19 1458 617.828
TargetDefocus = -4
SubFramePath = D:\DATA\Flo\HGK149_20151130\frames\TS_01_006_-9.0.mrc
NumSubFrames = 8
DateTime = 30-Nov-15  15:28:17

[ZValue = 7]
TiltAngle = -11.9985
StagePosition = 20.7965 155.265
StageZ = 163.803
Magnification = 105000
Intensity = 0.00900259
ExposureDose = 0
PixelSpacing = 5.4
SpotSize = 8
Defocus = 2.39657
ImageShift = 0.0412414 -0.0384158
RotationAngle = 175.3
ExposureTime = 0.8
Binning = 4
CameraIndex = 2
DividedBy2 = 1
MagIndex = 31
MinMaxMean = 30 1211 613.459
TargetDefocus = -4
SubFramePath = D:\DATA\Flo\HGK149_20151130\frames\TS_01_007_-12.0.mrc
NumSubFrames = 8
DateTime = 30-Nov-15  15:29:20

[ZValue = 8]
TiltAngle = 12.0005
StagePosition = 20.7848 155.293
StageZ = 163.803
Magnification = 105000
Intensity = 0.00900259
ExposureDose = 0
PixelSpacing = 5.4
SpotSize = 8
Defocus = 2.04544
ImageShift = -0.158494 -0.395514
RotationAngle = 175.3
ExposureTime = 0.8
Binning = 4
CameraIndex = 2
DividedBy2 = 1
MagIndex = 31
MinMaxMean = 2 1246 617.219
TargetDefocus = -4
SubFramePath = D:\DATA\Flo\HGK149_20151130\frames\TS_01_008_12.0.mrc
NumSubFrames = 8
DateTime = 30-Nov-15  15:30:22

[ZValue = 9]
TiltAngle = 15.0007
StagePosition = 20.7916 155.271
StageZ = 163.803
Magnification = 105000
Intensity = 0.00900259
ExposureDose = 0
PixelSpacing = 5.4
SpotSize = 8
Defocus = 1.94495
ImageShift = -0.153875 -0.368831
RotationAngle = 175.3
ExposureTime = 0.8
Binning = 4
CameraIndex = 2
DividedBy2 = 1
MagIndex = 31
MinMaxMean = 18 1293 612.604
TargetDefocus = -4
SubFramePath = D:\DATA\Flo\HGK149_20151130\frames\TS_01_009_15.0.mrc
NumSubFrames = 8
DateTime = 30-Nov-15  15:31:09

[ZValue = 10]
TiltAngle = -14.9987
StagePosition = 20.8043 155.284
StageZ = 163.803
Magnification = 105000
Intensity = 0.00900259
ExposureDose = 0
PixelSpacing = 5.4
SpotSize = 8
Defocus = 2.39634
ImageShift = 0.040034 -0.0410204
RotationAngle = 175.3
ExposureTime = 0.8
Binning = 4
CameraIndex = 2
DividedBy2 = 1
MagIndex = 31
MinMaxMean = 29 1244 608.334
TargetDefocus = -4
SubFramePath = D:\DATA\Flo\HGK149_20151130\frames\TS_01_010_-15.0.mrc
NumSubFrames = 8
DateTime = 30-Nov-15  15:32:02

[ZValue = 11]
TiltAngle = -17.9988
StagePosition = 20.7994 155.276
StageZ = 163.803
Magnification = 105000
Intensity = 0.00900259
ExposureDose = 0
PixelSpacing = 5.4
SpotSize = 8
Defocus = 2.31386
ImageShift = 0.0281426 -0.0662189
RotationAngle = 175.3
ExposureTime = 0.8
Binning = 4
CameraIndex = 2
DividedBy2 = 1
MagIndex = 31
MinMaxMean = 13 1186 601.734
TargetDefocus = -4
SubFramePath = D:\DATA\Flo\HGK149_20151130\frames\TS_01_011_-18.0.mrc
NumSubFrames = 8
DateTime = 30-Nov-15  15:33:05

[ZValue = 12]
TiltAngle = 18.0008
StagePosition = 20.7829 155.284
StageZ = 163.803
Magnification = 105000
Intensity = 0.00900259
ExposureDose = 0
PixelSpacing = 5.4
SpotSize = 8
Defocus = 1.76501
ImageShift = -0.137755 -0.36476
RotationAngle = 175.3
ExposureTime = 0.8
Binning = 4
CameraIndex = 2
DividedBy2 = 1
MagIndex = 31
MinMaxMean = 4 1308 606.825
TargetDefocus = -4
SubFramePath = D:\DATA\Flo\HGK149_20151130\frames\TS_01_012_18.0.mrc
NumSubFrames = 8
DateTime = 30-Nov-15  15:34:08

[ZValue = 13]
TiltAngle = 21.0009
StagePosition = 20.7897 155.286
StageZ = 163.803
Magnification = 105000
Intensity = 0.00900259
ExposureDose = 0
PixelSpacing = 5.4
SpotSize = 8
Defocus = 1.67639
ImageShift = -0.120241 -0.313683
RotationAngle = 175.3
ExposureTime = 0.8
Binning = 4
CameraIndex = 2
DividedBy2 = 1
MagIndex = 31
MinMaxMean = 0 1301 599.619
TargetDefocus = -4
SubFramePath = D:\DATA\Flo\HGK149_20151130\frames\TS_01_013_21.0.mrc
NumSubFrames = 8
DateTime = 30-Nov-15  15:34:55

[ZValue = 14]
TiltAngle = -20.9989
StagePosition = 20.8043 155.258
StageZ = 163.804
Magnification = 105000
Intensity = 0.00900259
ExposureDose = 0
PixelSpacing = 5.4
SpotSize = 8
Defocus = 2.41599
ImageShift = 0.0493161 -0.0567737
RotationAngle = 175.3
ExposureTime = 0.8
Binning = 4
CameraIndex = 2
DividedBy2 = 1
MagIndex = 31
MinMaxMean = 22 1165 592.983
TargetDefocus = -4
SubFramePath = D:\DATA\Flo\HGK149_20151130\frames\TS_01_014_-21.0.mrc
NumSubFrames = 8
DateTime = 30-Nov-15  15:36:02

[ZValue = 15]
TiltAngle = -23.9986
StagePosition = 20.8004 155.299
StageZ = 163.804
Magnification = 105000
Intensity = 0.00900259
ExposureDose = 0
PixelSpacing = 5.4
SpotSize = 8
Defocus = 2.36363
ImageShift = 0.0274857 -0.100797
RotationAngle = 175.3
ExposureTime = 0.8
Binning = 4
CameraIndex = 2
DividedBy2 = 1
MagIndex = 31
MinMaxMean = 6 1179 585.032
TargetDefocus = -4
SubFramePath = D:\DATA\Flo\HGK149_20151130\frames\TS_01_015_-24.0.mrc
NumSubFrames = 8
DateTime = 30-Nov-15  15:37:06

[ZValue = 16]
TiltAngle = 24.0006
StagePosition = 20.7809 155.278
StageZ = 163.804
Magnification = 105000
Intensity = 0.00900259
ExposureDose = 0
PixelSpacing = 5.4
SpotSize = 8
Defocus = 1.59176
ImageShift = -0.0728052 -0.269235
RotationAngle = 175.3
ExposureTime = 0.8
Binning = 4
CameraIndex = 2
DividedBy2 = 1
MagIndex = 31
MinMaxMean = 15 1292 590.564
TargetDefocus = -4
SubFramePath = D:\DATA\Flo\HGK149_20151130\frames\TS_01_016_24.0.mrc
NumSubFrames = 8
DateTime = 30-Nov-15  15:38:11

[ZValue = 17]
TiltAngle = 27.0007
StagePosition = 20.7907 155.284
StageZ = 163.804
Magnification = 105000
Intensity = 0.00900259
ExposureDose = 0
PixelSpacing = 5.4
SpotSize = 8
Defocus = 1.5431
ImageShift = -0.0701728 -0.232231
RotationAngle = 175.3
ExposureTime = 0.8
Binning = 4
CameraIndex = 2
DividedBy2 = 1
MagIndex = 31
MinMaxMean = 18 1333 580.398
TargetDefocus = -4
SubFramePath = D:\DATA\Flo\HGK149_20151130\frames\TS_01_017_27.0.mrc
NumSubFrames = 8
DateTime = 30-Nov-15  15:38:58

[ZValue = 18]
TiltAngle = -26.9992
StagePosition = 20.8082 155.257
StageZ = 163.805
Magnification = 105000
Intensity = 0.00900259
ExposureDose = 0
PixelSpacing = 5.4
SpotSize = 8
Defocus = 2.4843
ImageShift = 0.0166251 -0.149268
RotationAngle = 175.3
ExposureTime = 0.8
Binning = 4
CameraIndex = 2
DividedBy2 = 1
MagIndex = 31
MinMaxMean = 14 1179 572.728
TargetDefocus = -4
SubFramePath = D:\DATA\Flo\HGK149_20151130\frames\TS_01_018_-27.0.mrc
NumSubFrames = 8
DateTime = 30-Nov-15  15:40:20

[ZValue = 19]
TiltAngle = -29.9988
StagePosition = 20.8014 155.303
StageZ = 163.805
Magnification = 105000
Intensity = 0.00900259
ExposureDose = 0
PixelSpacing = 5.4
SpotSize = 8
Defocus = 2.5702
ImageShift = 0.00469883 -0.177642
RotationAngle = 175.3
ExposureTime = 0.8
Binning = 4
CameraIndex = 2
DividedBy2 = 1
MagIndex = 31
MinMaxMean = 0 1173 561.654
TargetDefocus = -4
SubFramePath = D:\DATA\Flo\HGK149_20151130\frames\TS_01_019_-30.0.mrc
NumSubFrames = 8
DateTime = 30-Nov-15  15:41:24

[ZValue = 20]
TiltAngle = 30.0008
StagePosition = 20.779 155.281
StageZ = 163.805
Magnification = 105000
Intensity = 0.00900259
ExposureDose = 0
PixelSpacing = 5.4
SpotSize = 8
Defocus = 1.41127
ImageShift = -0.0501554 -0.220175
RotationAngle = 175.3
ExposureTime = 0.8
Binning = 4
CameraIndex = 2
DividedBy2 = 1
MagIndex = 31
MinMaxMean = -1 1231 568.368
TargetDefocus = -4
SubFramePath = D:\DATA\Flo\HGK149_20151130\frames\TS_01_020_30.0.mrc
NumSubFrames = 8
DateTime = 30-Nov-15  15:42:28

[ZValue = 21]
TiltAngle = 33.001
StagePosition = 20.7897 155.287
StageZ = 163.805
Magnification = 105000
Intensity = 0.00900259
ExposureDose = 0
PixelSpacing = 5.4
SpotSize = 8
Defocus = 1.41166
ImageShift = -0.0807509 -0.210237
RotationAngle = 175.3
ExposureTime = 0.8
Binning = 4
CameraIndex = 2
DividedBy2 = 1
MagIndex = 31
MinMaxMean = 0 1191 554.103
TargetDefocus = -4
SubFramePath = D:\DATA\Flo\HGK149_20151130\frames\TS_01_021_33.0.mrc
NumSubFrames = 8
DateTime = 30-Nov-15  15:43:16

[ZValue = 22]
TiltAngle = -32.999
StagePosition = 20.8111 155.254
StageZ = 163.805
Magnification = 105000
Intensity = 0.00900259
ExposureDose = 0
PixelSpacing = 5.4
SpotSize = 8
Defocus = 2.66177
ImageShift = 0.00457092 -0.21848
RotationAngle = 175.3
ExposureTime = 0.8
Binning = 4
CameraIndex = 2
DividedBy2 = 1
MagIndex = 31
MinMaxMean = 15 1177 547.214
TargetDefocus = -4
SubFramePath = D:\DATA\Flo\HGK149_20151130\frames\TS_01_022_-33.0.mrc
NumSubFrames = 8
DateTime = 30-Nov-15  15:44:38

[ZValue = 23]
TiltAngle = -35.9986
StagePosition = 20.8043 155.297
StageZ = 163.805
Magnification = 105000
Intensity = 0.00900259
ExposureDose = 0
PixelSpacing = 5.4
SpotSize = 8
Defocus = 2.76839
ImageShift = 0.015025 -0.207903
RotationAngle = 175.3
ExposureTime = 0.8
Binning = 4
CameraIndex = 2
DividedBy2 = 1
MagIndex = 31
MinMaxMean = -3 1180 531.864
TargetDefocus = -4
SubFramePath = D:\DATA\Flo\HGK149_20151130\frames\TS_01_023_-36.0.mrc
NumSubFrames = 8
DateTime = 30-Nov-15  15:45:42

[ZValue = 24]
TiltAngle = 36.0006
StagePosition = 20.7761 155.3
StageZ = 163.805
Magnification = 105000
Intensity = 0.00900259
ExposureDose = 0
PixelSpacing = 5.4
SpotSize = 8
Defocus = 1.24959
ImageShift = -0.0931278 -0.289965
RotationAngle = 175.3
ExposureTime = 0.8
Binning = 4
CameraIndex = 2
DividedBy2 = 1
MagIndex = 31
MinMaxMean = 13 1212 539.629
TargetDefocus = -4
SubFramePath = D:\DATA\Flo\HGK149_20151130\frames\TS_01_024_36.0.mrc
NumSubFrames = 8
DateTime = 30-Nov-15  15:47:00

[ZValue = 25]
TiltAngle = 39.0007
StagePosition = 20.7848 155.263
StageZ = 163.805
Magnification = 105000
Intensity = 0.00900259
ExposureDose = 0
PixelSpacing = 5.4
SpotSize = 8
Defocus = 1.19337
ImageShift = -0.126749 -0.327575
RotationAngle = 175.3
ExposureTime = 0.8
Binning = 4
CameraIndex = 2
DividedBy2 = 1
MagIndex = 31
MinMaxMean = -19 1209 522.271
TargetDefocus = -4
SubFramePath = D:\DATA\Flo\HGK149_20151130\frames\TS_01_025_39.0.mrc
NumSubFrames = 8
DateTime = 30-Nov-15  15:48:01

[ZValue = 26]
TiltAngle = -38.9987
StagePosition = 20.813 155.253
StageZ = 163.807
Magnification = 105000
Intensity = 0.00900259
ExposureDose = 0
PixelSpacing = 5.4
SpotSize = 8
Defocus = 2.90108
ImageShift = 0.0231662 -0.239794
RotationAngle = 175.3
ExposureTime = 0.8
Binning = 4
CameraIndex = 2
DividedBy2 = 1
MagIndex = 31
MinMaxMean = 8 1111 513.339
TargetDefocus = -4
SubFramePath = D:\DATA\Flo\HGK149_20151130\frames\TS_01_026_-39.0.mrc
NumSubFrames = 8
DateTime = 30-Nov-15  15:49:23

[ZValue = 27]
TiltAngle = -41.9989
StagePosition = 20.8072 155.298
StageZ = 163.807
Magnification = 105000
Intensity = 0.00900259
ExposureDose = 0
PixelSpacing = 5.4
SpotSize = 8
Defocus = 3.01957
ImageShift = 0.0558517 -0.192795
RotationAngle = 175.3
ExposureTime = 0.8
Binning = 4
CameraIndex = 2
DividedBy2 = 1
MagIndex = 31
MinMaxMean = -6 1117 493.692
TargetDefocus = -4
SubFramePath = D:\DATA\Flo\HGK149_20151130\frames\TS_01_027_-42.0.mrc
NumSubFrames = 8
DateTime = 30-Nov-15  15:50:27

[ZValue = 28]
TiltAngle = 42.0009
StagePosition = 20.7741 155.301
StageZ = 163.807
Magnification = 105000
Intensity = 0.00900259
ExposureDose = 0
PixelSpacing = 5.4
SpotSize = 8
Defocus = 1.02514
ImageShift = -0.164701 -0.49358
RotationAngle = 175.3
ExposureTime = 0.8
Binning = 4
CameraIndex = 2
DividedBy2 = 1
MagIndex = 31
MinMaxMean = 8 1151 503.221
TargetDefocus = -4
SubFramePath = D:\DATA\Flo\HGK149_20151130\frames\TS_01_028_42.0.mrc
NumSubFrames = 8
DateTime = 30-Nov-15  15:51:46

[ZValue = 29]
TiltAngle = 45.001
StagePosition = 20.7829 155.266
StageZ = 163.807
Magnification = 105000
Intensity = 0.00900259
ExposureDose = 0
PixelSpacing = 5.4
SpotSize = 8
Defocus = 0.940602
ImageShift = -0.195705 -0.520538
RotationAngle = 175.3
ExposureTime = 0.8
Binning = 4
CameraIndex = 2
DividedBy2 = 1
MagIndex = 31
MinMaxMean = 4 1064 479.977
TargetDefocus = -4
SubFramePath = D:\DATA\Flo\HGK149_20151130\frames\TS_01_029_45.0.mrc
NumSubFrames = 8
DateTime = 30-Nov-15  15:52:46

[ZValue = 30]
TiltAngle = -44.999
StagePosition = 20.815 155.253
StageZ = 163.808
Magnification = 105000
Intensity = 0.00900259
ExposureDose = 0
PixelSpacing = 5.4
SpotSize = 8
Defocus = 3.14255
ImageShift = 0.0789901 -0.194282
RotationAngle = 175.3
ExposureTime = 0.8
Binning = 4
CameraIndex = 2
DividedBy2 = 1
MagIndex = 31
MinMaxMean = 1 1178 470.977
TargetDefocus = -4
SubFramePath = D:\DATA\Flo\HGK149_20151130\frames\TS_01_030_-45.0.mrc
NumSubFrames = 8
DateTime = 30-Nov-15  15:54:08

[ZValue = 31]
TiltAngle = -47.9986
StagePosition = 20.8082 155.302
StageZ = 163.808
Magnification = 105000
Intensity = 0.00900259
ExposureDose = 0
PixelSpacing = 5.4
SpotSize = 8
Defocus = 3.26676
ImageShift = 0.0980523 -0.177755
RotationAngle = 175.3
ExposureTime = 0.8
Binning = 4
CameraIndex = 2
DividedBy2 = 1
MagIndex = 31
MinMaxMean = -1 1013 446.194
TargetDefocus = -4
SubFramePath = D:\DATA\Flo\HGK149_20151130\frames\TS_01_031_-48.0.mrc
NumSubFrames = 8
DateTime = 30-Nov-15  15:55:12

[ZValue = 32]
TiltAngle = 48.0006
StagePosition = 20.7761 155.303
StageZ = 163.808
Magnification = 105000
Intensity = 0.00900259
ExposureDose = 0
PixelSpacing = 5.4
SpotSize = 8
Defocus = 0.590105
ImageShift = -0.24984 -0.724789
RotationAngle = 175.3
ExposureTime = 0.8
Binning = 4
CameraIndex = 2
DividedBy2 = 1
MagIndex = 31
MinMaxMean = -20 1071 456.427
TargetDefocus = -4
SubFramePath = D:\DATA\Flo\HGK149_20151130\frames\TS_01_032_48.0.mrc
NumSubFrames = 8
DateTime = 30-Nov-15  15:56:32

[ZValue = 33]
TiltAngle = 51.0008
StagePosition = 20.7829 155.262
StageZ = 163.808
Magnification = 105000
Intensity = 0.00900259
ExposureDose = 0
PixelSpacing = 5.4
SpotSize = 8
Defocus = 0.459121
ImageShift = -0.24008 -0.675511
RotationAngle = 175.3
ExposureTime = 0.8
Binning = 4
CameraIndex = 2
DividedBy2 = 1
MagIndex = 31
MinMaxMean = -13 1090 429.238
TargetDefocus = -4
SubFramePath = D:\DATA\Flo\HGK149_20151130\frames\TS_01_033_51.0.mrc
NumSubFrames = 8
DateTime = 30-Nov-15  15:57:32

[ZValue = 34]
TiltAngle = -50.9988
StagePosition = 20.816 155.254
StageZ = 163.809
Magnification = 105000
Intensity = 0.00900259
ExposureDose = 0
PixelSpacing = 5.4
SpotSize = 8
Defocus = 3.34823
ImageShift = 0.159872 -0.1096
RotationAngle = 175.3
ExposureTime = 0.8
Binning = 4
CameraIndex = 2
DividedBy2 = 1
MagIndex = 31
MinMaxMean = -8 1005 418.049
TargetDefocus = -4
SubFramePath = D:\DATA\Flo\HGK149_20151130\frames\TS_01_034_-51.0.mrc
NumSubFrames = 8
DateTime = 30-Nov-15  15:58:55

[ZValue = 35]
TiltAngle = -53.9989
StagePosition = 20.8072 155.297
StageZ = 163.809
Magnification = 105000
Intensity = 0.00900259
ExposureDose = 0
PixelSpacing = 5.4
SpotSize = 8
Defocus = 3.42808
ImageShift = 0.201821 -0.0525
RotationAngle = 175.3
ExposureTime = 0.8
Binning = 4
CameraIndex = 2
DividedBy2 = 1
MagIndex = 31
MinMaxMean = -16 971 387.337
TargetDefocus = -4
SubFramePath = D:\DATA\Flo\HGK149_20151130\frames\TS_01_035_-54.0.mrc
NumSubFrames = 8
DateTime = 30-Nov-15  15:59:59

[ZValue = 36]
TiltAngle = 54.0009
StagePosition = 20.7809 155.309
StageZ = 163.809
Magnification = 105000
Intensity = 0.00900259
ExposureDose = 0
PixelSpacing = 5.4
SpotSize = 8
Defocus = 0.102272
ImageShift = -0.0667405 -0.457697
RotationAngle = 175.3
ExposureTime = 0.8
Binning = 4
CameraIndex = 2
DividedBy2 = 1
MagIndex = 31
MinMaxMean = -31 1001 399.15
TargetDefocus = -4
SubFramePath = D:\DATA\Flo\HGK149_20151130\frames\TS_01_036_54.0.mrc
NumSubFrames = 8
DateTime = 30-Nov-15  16:01:19

[ZValue = 37]
TiltAngle = 57
StagePosition = 20.78 155.264
StageZ = 163.809
Magnification = 105000
Intensity = 0.00900259
ExposureDose = 0
PixelSpacing = 5.4
SpotSize = 8
Defocus = -0.070504
ImageShift = -0.0541568 -0.405456
RotationAngle = 175.3
ExposureTime = 0.8
Binning = 4
CameraIndex = 2
DividedBy2 = 1
MagIndex = 31
MinMaxMean = -12 1013 364.717
TargetDefocus = -4
SubFramePath = D:\DATA\Flo\HGK149_20151130\frames\TS_01_037_57.0.mrc
NumSubFrames = 8
DateTime = 30-Nov-15  16:02:20

[ZValue = 38]
TiltAngle = -56.9985
StagePosition = 20.816 155.249
StageZ = 163.81
Magnification = 105000
Intensity = 0.00900259
ExposureDose = 0
PixelSpacing = 5.4
SpotSize = 8
Defocus = 3.61877
ImageShift = 0.202049 -0.108391
RotationAngle = 175.3
ExposureTime = 0.8
Binning = 4
CameraIndex = 2
DividedBy2 = 1
MagIndex = 31
MinMaxMean = -14 904 353.779
TargetDefocus = -4
SubFramePath = D:\DATA\Flo\HGK149_20151130\frames\TS_01_038_-57.0.mrc
NumSubFrames = 8
DateTime = 30-Nov-15  16:03:43

[ZValue = 39]
TiltAngle = -59.9986
StagePosition = 20.8082 155.303
StageZ = 163.81
Magnification = 105000
Intensity = 0.00900259
ExposureDose = 0
PixelSpacing = 5.4
SpotSize = 8
Defocus = 2.95405
ImageShift = 0.110643 -0.416201
RotationAngle = 175.3
ExposureTime = 0.8
Binning = 4
CameraIndex = 2
DividedBy2 = 1
MagIndex = 31
MinMaxMean = -17 86 2.75034
TargetDefocus = -4
SubFramePath = D:\DATA\Flo\HGK149_20151130\frames\TS_01_039_-60.0.mrc
NumSubFrames = 8
DateTime = 30-Nov-15  16:05:25

[ZValue = 40]
TiltAngle = 60.0006
StagePosition = 20.7838 155.308
StageZ = 163.81
Magnification = 105000
Intensity = 0.00900259
ExposureDose = 0
PixelSpacing = 5.4
SpotSize = 8
Defocus = -0.567786
ImageShift = 0.0570084 -0.312555
RotationAngle = 175.3
ExposureTime = 0.8
Binning = 4
CameraIndex = 2
DividedBy2 = 1
MagIndex = 31
MinMaxMean = -29 928 329.46
TargetDefocus = -4
SubFramePath = D:\DATA\Flo\HGK149_20151130\frames\TS_01_040_60.0.mrc
NumSubFrames = 8
DateTime = 30-Nov-15  16:06:45
